t,theta,omega,r,i_d,i_q,i_q_ref,v_d,v_q
0,0,0,167.558616289805,-2.23767770892184e-24,0,0,0,0
0.01,0.0644490227722531,126.547125893962,167.558616289805,0.12537325842446,7.53143142981887,10,-0.879076615146474,18.6290810020143
0.02,0.23312941314819,166.870861997964,167.558616289805,0.0102626315708376,1.29700499979067,1.53040730953217,-0.290015197349232,6.10176442687868
0.03,0.407677629228275,166.674662032239,167.558616289805,-0.121533151577248,0.969068275435565,1.07136821746826,0.550877926870269,5.50628874115441
0.04,0.582236616087279,166.646360376697,167.558616289805,-0.0140888273914905,0.917781507894299,0.996149837970734,-0.092534371717433,5.52293050468542
0.05,0.756806319302747,166.715522695395,167.558616289805,0.0729442276927659,1.02652969395407,1.02289354801178,-0.6271584978394,5.15859321150509
0.06,0.931399400768179,166.708118976516,167.558616289805,0.0980318716853202,0.9374318750855,0.988640427589417,-0.771706561934182,5.57970897291099
0.07,1.10599858627641,166.780206550145,167.558616289805,-0.0136919747187695,0.903474058006724,1.0103931427002,-0.0920659601720823,6.00299331399988
0.08,1.28061050062466,166.838951956792,167.558616289805,-0.0406578814781541,0.934635514560671,1.007169008255,0.0523283261767107,5.87213710181086
0.09,1.45524126857213,166.773191631194,167.558616289805,0.0104201233483204,0.959561639099977,0.961014330387115,-0.245611862578622,5.48764162742641
0.1,1.62986221020143,166.794702915813,167.558616289805,-0.070906627272576,0.996006308556808,1.00724685192108,0.237063199607269,5.58962583528852
0.11,1.80449016407803,166.768126893773,167.558616289805,0.00230752949073092,1.08538850469038,1.05560207366943,-0.1904855387323,5.36362691763331
0.12,1.97913468080557,166.806524531492,167.558616289805,-0.0367017272507323,1.02981273508701,0.998449504375458,0.0507778581189401,5.35550523060889
0.13,2.15378453425008,166.768251692907,167.558616289805,0.0229757565902296,0.921326311699924,0.963089466094971,-0.31050595016056,5.7988437721115
0.14,2.32843061235601,166.7670796287,167.558616289805,0.0712490887830419,0.930893330079461,0.905936896800995,-0.599916471383913,5.41885930797085
0.15,2.50306824274869,166.848596857806,167.558616289805,0.00611985955284997,1.02060538242408,1.05799317359924,-0.187445592721551,5.82149016242605
0.16,2.67771909737901,166.725668817982,167.558616289805,-0.0485991546963896,0.911213615756077,0.872230410575867,0.140501826071973,5.35705682655482
0.17,2.85236241216225,166.708341892481,167.558616289805,0.0290999479139409,0.960534070211434,0.930296242237091,-0.325557716878778,5.40600897499086
0.18,3.02701572638597,166.761857922959,167.558616289805,0.0201457809306212,0.984324678654764,0.998863220214844,-0.281063327013059,5.66165542538919
0.19,3.20165302629094,166.756558953159,167.558616289805,-0.0655653511518524,0.877238073843558,0.92777693271637,0.245087842641739,5.8973113724791
0.2,3.37629452123615,166.794566353183,167.558616289805,0.090406574088931,0.851673581177303,0.870556592941284,-0.707774006418564,5.73069935486062
0.21,3.55094031333351,166.767200944566,167.558616289805,-0.0241979036836292,0.97193005304476,0.9395751953125,-0.00814628004000495,5.4315736379733
0.22,3.72558679541246,166.776036292969,167.558616289805,0.0149657816556861,1.03969480852705,1.00082528591156,-0.233426996974961,5.39041527980198
0.23,3.90023132645475,166.773585065871,167.558616289805,0.0815779107714523,1.03837295497151,0.974430680274963,-0.640481530001557,5.23259545751533
0.24,4.07487533720869,166.770770238317,167.558616289805,-0.0250041189305409,0.981862364036677,0.959169507026672,-0.0286141725826732,5.47869629116087
0.25,4.24952342739636,166.736737705139,167.558616289805,-0.0118297627728855,0.859874136889505,0.938059329986572,-0.12123631826551,6.09240453465327
0.26,4.42417366033852,166.814605005558,167.558616289805,-0.00744403407867689,0.902853060861392,0.921940088272095,-0.140814077780574,5.74775327767629
0.27,4.59882410829649,166.718606803339,167.558616289805,-0.0871410010475773,0.860639055223046,0.842136681079865,0.327022206165754,5.5249960664108
0.28,4.7734728099775,166.747028841086,167.558616289805,-0.0159609145851532,0.965419522617006,0.938232243061066,-0.0993310110097607,5.46649918330039
0.29,4.94811211029186,166.761219396254,167.558616289805,-0.037177626923159,1.03303795417632,0.958539426326752,0.0532258928421858,5.18396588477732
0.3,5.12276323480385,166.770924324896,167.558616289805,0.0546016663276135,0.975815046222829,0.969813227653503,-0.504744257348897,5.58486128391758
0.31,5.29740380901632,166.80786618856,167.558616289805,-0.0447722321745888,0.960645937735184,0.958165407180786,0.100529071232374,5.62541190770465
0.32,5.47205583696554,166.79076916757,167.558616289805,-0.0921392596166903,0.888597910163029,0.933735489845276,0.358777147276443,5.91884881410279
0.33,5.64671724930666,166.74436582929,167.558616289805,0.0179446961858236,0.913274611870244,0.871479034423828,-0.286289209112096,5.38115156130743
0.34,5.8213546264342,166.809022761557,167.558616289805,-0.0058793707175996,1.07247643934081,1.001584649086,-0.14025077496644,5.2157794572961
0.35,5.99599363113747,166.758656549513,167.558616289805,0.0766731977554335,1.0672941929771,1.02064979076385,-0.632812970111478,5.36196297331539
0.36,6.1706458395612,166.783254523544,167.558616289805,-0.0615194577384483,0.99478477897546,0.979327797889709,0.197135927104686,5.53625354117844
0.37,0.0621093388736425,166.821223737858,167.558616289805,0.0233240889813797,0.927505459875236,0.962960004806519,-0.312715483056373,5.83750946707976
0.38,0.23675641834853,166.789326218747,167.558616289805,-0.0181354508010421,0.96569425973957,0.962468147277832,-0.052448710189449,5.61745823406381
0.39,0.411407119101479,166.730964914871,167.558616289805,-0.0832583895354729,0.879136943122983,0.875731825828552,0.336587474606047,5.62136107842487
0.4,0.586054223561677,166.7654907857,167.558616289805,-0.0331664214084235,1.01873914122137,0.958051741123199,0.0412076758950744,5.27147381192422
0.41,0.760698891696357,166.740978166526,167.558616289805,0.0570293196169148,0.943454909108181,0.912258446216583,-0.498928975485654,5.44118688022301
0.42,0.935345742805706,166.815674463857,167.558616289805,0.101605480183157,0.981121595456591,0.971363067626953,-0.760616746581663,5.5606862360076
0.43,1.10999564869806,166.817226473159,167.558616289805,0.00172805916103584,0.98126069849476,0.973648905754089,-0.175920079564783,5.57777568166225
0.44,1.28464114813627,166.769624209946,167.558616289805,-0.0750441420804134,0.889143694035619,0.948496341705322,0.27553014349085,5.99753482822061
0.45,1.45929929484304,166.765806507421,167.558616289805,-0.0149680030725785,1.03120221161031,0.994909346103668,-0.0848408205126913,5.40665135930592
0.46,1.6339351469262,166.755360636864,167.558616289805,-0.0450800056185366,0.970040780016799,0.945818901062012,0.104997195477121,5.48814090484156
0.47,1.80858333091548,166.736124941984,167.558616289805,0.0116549036685813,0.970334925911982,0.92407637834549,-0.234942545633887,5.34586626070538
0.48,1.98322389293105,166.788243230701,167.558616289805,-0.0404484943427478,0.925153063208986,0.923268377780914,0.100892972119062,5.61195881091724
0.49,2.15788070802349,166.813876477613,167.558616289805,0.0333470388402377,0.93296240364399,0.94707578420639,-0.343918723300596,5.69653624239081
0.5,2.33252766206777,166.8473987404,167.558616289805,-0.0135891725261618,0.890255278334779,0.894010663032532,-0.0670979889554573,5.65003184940688
0.51,2.50716520037595,166.815634777784,167.558616289805,-0.0768931061947769,1.01362866410254,0.99295175075531,0.326362652146811,5.52451445467451
0.52,2.68181185161657,166.799049544489,167.558616289805,0.0475494647466082,1.06686611034954,0.980626404285431,-0.399990399928912,5.12205962442889
0.53,2.85646032047429,166.804226936867,167.558616289805,0.0289570442624951,1.01625901893488,0.988716065883636,-0.299371482791975,5.46517322194054
0.54,3.0311084751969,166.7539671647,167.558616289805,0.0525756756700337,0.999062762228152,1.01263642311096,-0.427974573598356,5.70415849320957
0.55,3.20575559928655,166.826043558328,167.558616289805,0.01220286790347,0.989201502320675,0.989900290966034,-0.177900665864931,5.63576923048442
0.56,3.3804103116019,166.69345188187,167.558616289805,-0.0897036710645602,0.875363230228296,0.95738559961319,0.420020538677649,6.12963383121936
0.57,3.55506657942745,166.69696313321,167.558616289805,0.0320742669396705,0.91644516419361,0.906488478183746,-0.310980396607155,5.57495337067405
0.58,3.7297129478145,166.766568969095,167.558616289805,-0.0897979205216673,1.05861478395538,1.02530252933502,0.410961995564819,5.42799302222956
0.59,3.90436563064509,166.800327279266,167.558616289805,-0.0208673872140719,1.02138125260998,0.999788761138916,-0.0378240402795779,5.48346272118317
0.6,4.07901289121382,166.778165265433,167.558616289805,3.60648382216056e-05,0.966882956025533,0.932225406169891,-0.130524618185902,5.40095004191732
0.61,4.25365437966177,166.843556830326,167.558616289805,0.0123272375370267,0.897470180073604,0.99254959821701,-0.215156761525045,6.19503576831352
0.62,4.42829524087986,166.77173122628,167.558616289805,-0.00884062394169333,0.85824104591778,0.939281225204468,-0.0862589593566848,6.13145537865016
0.63,4.60294661336538,166.716388290933,167.558616289805,-0.0916624437046173,0.896185067238497,0.920700311660767,0.419902801086256,5.79089153831567
0.64,4.77760029353059,166.779043468809,167.558616289805,0.0218648007545295,0.991726894062785,0.972194492816925,-0.256311678597313,5.50890987945578
0.65,4.95224571266511,166.758121719621,167.558616289805,0.0180695150949727,0.983524215457855,0.944580495357513,-0.232815400167592,5.38732116965586
0.66,5.1268997500164,166.741520020517,167.558616289805,0.0652457603272468,0.946972838104069,0.952150642871857,-0.546857653133219,5.63476591263961
0.67,5.30155242595779,166.817142910987,167.558616289805,-0.0441283164797583,0.879399611488526,0.900101780891418,0.132641112882836,5.72823613892464
0.68,5.47619745024572,166.72662008438,167.558616289805,-0.057510746929239,0.887622340782624,0.957151353359222,0.210086871215583,6.04147384488993
0.69,5.65084940647791,166.819403471303,167.558616289805,0.0266527933702497,1.12086695011179,1.11275315284729,-0.300858734179401,5.56659286316793
0.7,5.82550321910892,166.792664109196,167.558616289805,-0.0458531723232383,1.08366036814497,1.04279589653015,0.128424624805593,5.35547102933582
0.71,6.00014333067143,166.779239932044,167.558616289805,0.00595148376538596,1.00668687082617,0.976971507072449,-0.189697751622261,5.42455625758232
0.72,6.17478731445967,166.713864316958,167.558616289805,0.0133802710186555,0.941782321607392,0.929484367370605,-0.248759933094891,5.52775565599454
0.73,0.0662547236747066,166.758900743841,167.558616289805,0.0344524294922953,0.841412774067721,0.921382009983063,-0.389123660861107,6.07708208152902
0.74,0.240902890766169,166.827636588574,167.558616289805,-0.0239833506608477,0.889412460371154,0.917434930801392,-0.04667749965294,5.77934559113643
0.75,0.415546502798591,166.765565061103,167.558616289805,-0.0245043593124466,0.985614489669483,0.919359445571899,-0.0419472563378978,5.2211790029879
0.76,0.590195357868236,166.712109340678,167.558616289805,0.0291556485018355,0.9221171222453,0.895471572875977,-0.356757304042324,5.45197410777356
0.77,0.764842149569164,166.76498619111,167.558616289805,-0.014214831825748,1.00694423318385,0.984114766120911,-0.0793859294428282,5.46272508664827
0.78,0.939483858943333,166.756646185824,167.558616289805,0.017831959416182,0.926850032831082,0.967543840408325,-0.288046958284079,5.84476837431734
0.79,1.11413087326574,166.825439059413,167.558616289805,-0.0594710255457906,0.887307366259789,0.940923392772675,0.185554459723096,5.92919206929263
0.8,1.28877504266607,166.762084410346,167.558616289805,-0.0314804248894712,0.886183599507372,0.908702433109283,-0.000584970931779838,5.76192402463632
0.81,1.46342378340098,166.717126823917,167.558616289805,0.076063464214449,0.964040931140427,0.950214922428131,-0.65665554204477,5.54396849188432
0.82,1.63807350479641,166.767704798942,167.558616289805,-0.0879158874168741,1.0552670566756,1.00200271606445,0.319908397681038,5.2957692680164
0.83,1.81271845984641,166.784646120945,167.558616289805,-0.0244914219095397,1.00853750594026,0.970007538795471,-0.0471409264350864,5.37640395927717
0.84,1.98735896300965,166.826955737993,167.558616289805,0.0467885213713307,1.05121341792315,1.03193509578705,-0.487253258330968,5.50221170845801
0.85,2.16201266958522,166.821295307512,167.558616289805,-0.0418684818654219,0.92939436224818,1.00730204582214,0.0335050704063089,6.08989425797594
0.86,2.33666356128677,166.794182484239,167.558616289805,-0.0363626369765552,0.869336127891664,0.844009280204773,0.0396548480901413,5.48053796312717
0.87,2.51131933282093,166.765768861732,167.558616289805,-0.0857627624178414,0.94732896560638,0.943763315677643,0.356198031277645,5.60147160812384
0.88,2.68596285373228,166.763757638907,167.558616289805,0.0177746985614226,0.99187631300063,0.981436669826508,-0.242213389394405,5.55909920108265
0.89,2.86060576493051,166.767734814267,167.558616289805,-0.0344365498570932,1.05495913983032,0.991897583007812,0.0530497468055136,5.23866126449003
0.9,3.03524524376759,166.814578410124,167.558616289805,0.0676193601489117,0.992408348720971,0.973474860191345,-0.565643351770593,5.50953016175952
0.91,3.209888424229,166.819069005577,167.558616289805,0.0175681250460416,0.939165233094944,0.964514315128326,-0.27458182635545,5.79284639487966
0.92,3.384542506624,166.758851203048,167.558616289805,-0.0128422476819154,0.887858028088237,0.902687013149261,-0.117841717561454,5.73850716272543
0.93,3.55919892373901,166.765651009438,167.558616289805,0.0816917845229555,0.923146357734259,0.922971427440643,-0.681280223193993,5.63519747287747
0.94,3.73384207391285,166.759404598981,167.558616289805,-0.00278050838900756,0.986236937003196,0.969700634479523,-0.170045063302617,5.53505164477186
0.95,3.90849257349621,166.738508472735,167.558616289805,0.0386632759550069,0.951711155072961,0.939308822154999,-0.415608915726605,5.55035470778424
0.96,4.08313802689815,166.780975087613,167.558616289805,0.0598869698653725,0.917351900155975,0.979488968849182,-0.53830546671546,5.99737159679164
0.97,4.257784547504,166.778733106712,167.558616289805,-0.0370834705331626,0.907718715493335,0.99168872833252,0.0438318077153931,6.13548887817413
0.98,4.43243599151592,166.805283735709,167.558616289805,-0.0172027673769762,0.88494702669941,0.877152740955353,-0.0587737623472129,5.59281148150464
0.99,4.60709474869422,166.851850028962,167.558616289805,-0.0952264335063651,1.06089828294623,1.0241277217865,0.396375918648046,5.40124406871241
1,4.78174533299517,166.783548054635,167.558616289805,-0.0189288861780046,1.03351887295232,0.953402757644653,-0.0671076801900078,5.13290864813858
1.01,4.95638965171281,166.766111619573,167.558616289805,0.0257617078671026,0.998644941934693,0.992521464824677,-0.344491568688832,5.56771316223368
1.02,5.13102570289199,166.731729294834,167.558616289805,0.0144893007297432,0.96971596033456,0.969920873641968,-0.271236266282427,5.61821143660763
1.03,5.3056853856118,166.817602692041,167.558616289805,-0.0253891652330668,0.815799318168917,0.890569150447845,-0.011235648064773,6.06163770714363
1.04,5.48033784748795,166.809636843402,167.558616289805,-0.0221986653448417,0.954948905932914,0.929620027542114,-0.0361733867593675,5.465585596494
1.05,5.65498802329639,166.722337377743,167.558616289805,0.00967330318205667,0.964032506655649,0.899905681610107,-0.211854501787722,5.23036081237161
1.06,5.82962482728545,166.784361897629,167.558616289805,-0.0324238906843666,1.06354538945015,0.983354926109314,0.0544901164357201,5.14018346143815
1.07,6.00427342091752,166.734943954328,167.558616289805,0.00392294170675977,0.992036227915014,0.979588449001312,-0.139279782031148,5.53315805565634
1.08,6.17892013946772,166.821631837789,167.558616289805,0.0252239622307614,0.981468169583662,0.964304745197296,-0.258371371215326,5.50075067767906
1.09,0.0703890258474082,166.763839433948,167.558616289805,0.0622350892011004,0.834044245681054,0.943262279033661,-0.498616937833446,6.25453445294203
1.1,0.245033803614991,166.861439026261,167.558616289805,0.0240869008440308,0.915851711724754,0.969395756721497,-0.268745000005924,5.94215561464709
1.11,0.419669069272842,166.789037914713,167.558616289805,0.00392044485663046,1.02705793992768,0.982950568199158,-0.160468179449893,5.37167955635708
1.12,0.59433470390077,166.748561573642,167.558616289805,-0.0698471823541805,0.85827817915678,0.865139901638031,0.281941747874964,5.64600066458438
1.13,0.76897278431592,166.788054726055,167.558616289805,-0.0712086036928148,1.05063003757789,0.997729659080505,0.284188164310926,5.29171388747586
1.14,0.943616422385016,166.754009579087,167.558616289805,0.00829998348253885,0.974262655265973,0.950084567070007,-0.197813409347976,5.46737235603527
1.15,1.11826552559944,166.81646975051,167.558616289805,0.0275987097008195,0.964067229234684,1.01280248165131,-0.311066177504348,5.91362016474305
1.16,1.29291484714767,166.735126898983,167.558616289805,-0.0165935715950487,0.896119766098826,0.961114883422852,-0.0569761451292261,6.02548586902064
1.17,1.46756083247611,166.737527612444,167.558616289805,0.0123974108508151,1.04324321484472,0.99781721830368,-0.207707054424087,5.36271988520519
1.18,1.64220246955275,166.712758779983,167.558616289805,-0.103933203991564,0.9708652594318,0.965754389762878,0.511196127751229,5.60855036730215
1.19,1.81685570762621,166.723941555169,167.558616289805,0.0461622377378582,0.954629598721189,0.94771546125412,-0.409856857873954,5.58066993180102
1.2,1.9915005649139,166.76412350639,167.558616289805,0.0686334276792168,0.947284461736781,0.949075400829315,-0.550797244747755,5.63489574440174
1.21,2.1661634653811,166.846108566435,167.558616289805,-0.00208610497861056,0.811167696998008,0.865568399429321,-0.116101288689241,5.93635726708898
1.22,2.34081198065509,166.755020724206,167.558616289805,0.0556419741026612,0.902837660737546,0.880229651927948,-0.450618670524031,5.48264391282712
1.23,2.51545640169894,166.807941701236,167.558616289805,-0.00295339337606743,0.991931359623206,1.00057947635651,-0.127600397198826,5.68098742466291
1.24,2.6901099264169,166.744510377551,167.558616289805,-0.0104135588754923,1.00749169117587,0.958173453807831,-0.0883871525563388,5.31786813062958
1.25,2.86474399951376,166.765105154353,167.558616289805,-0.012647945125196,1.07760355215732,1.00327682495117,-0.0833754868384508,5.17798396672091
1.26,3.039391191074,166.756099353313,167.558616289805,-0.0107300273420052,0.959101566614314,0.918730974197388,-0.0920453682980243,5.37334545603746
1.27,3.21403475887806,166.86836298809,167.558616289805,-0.00539963084620271,0.902578382095525,1.00683224201202,-0.0952644867261784,6.26198503209541
1.28,3.3886937618064,166.832049740494,167.558616289805,0.0279348570465628,1.01912530380184,0.973843336105347,-0.308564865405047,5.35758051439219
1.29,3.56334207396584,166.754621927572,167.558616289805,0.0142836359987854,0.962853293777158,0.957227110862732,-0.229896413279901,5.5923319357799
1.3,3.73799064383459,166.771374125746,167.558616289805,-0.0998552668235091,0.991153810351457,0.962358415126801,0.457865619628425,5.44556076616846
1.31,3.91263737981006,166.745041241599,167.558616289805,0.00954297863610015,1.00251833939914,1.00883913040161,-0.201745422889766,5.64925604948857
1.32,4.08727793770734,166.80456911629,167.558616289805,0.0297550475312256,0.957079184223369,1.0309077501297,-0.339255475463806,6.06374365594494
1.33,4.26192459991668,166.778381190053,167.558616289805,-0.0347062059587557,0.877444631165056,0.930011928081512,0.0539417478199088,5.94926793468179
1.34,4.43656959036214,166.815130971464,167.558616289805,-0.00347430385922975,0.866634830164238,0.923332273960114,-0.132225553912506,5.98869890469256
1.35,4.61122961828577,166.791159203381,167.558616289805,0.0559533900560044,0.948383975571657,0.858298122882843,-0.503070843082092,5.08668408464411
1.36,4.78588400088294,166.755920366405,167.558616289805,0.0322733210593421,1.0342194799205,0.981922328472137,-0.35081191964471,5.2967329135502
