t,theta,omega,r,i_d,i_q,i_q_ref,v_d,v_q
0,0,0,84.3251538502734,-2.2407550402921e-24,0,0,0,0
0.01,0.058457347374313,84.3059306675666,84.3251538502734,0.0969285654210028,3.05513829036738,4.07769727706909,-0.622304504369852,8.72895938699951
0.02,0.146404790660133,83.8613557906262,84.3251538502734,-0.0677172269934003,0.488543352595059,0.532981634140015,0.389196044253984,2.79904470056693
0.03,0.234245394418816,83.9423996942386,84.3251538502734,0.0449576602078644,0.498426472914833,0.50787216424942,-0.276551782881185,2.65930731726421
0.04,0.322097289575256,83.8854598354684,84.3251538502734,0.03113252544226,0.513196972074902,0.583008527755737,-0.205578548670823,3.05397533055267
0.05,0.409941316911941,83.9075557013126,84.3251538502734,-0.0718832725538338,0.476822159623261,0.549712717533112,0.390394972311761,3.1530287873053
0.06,0.497795864896025,83.9441455737213,84.3251538502734,-0.00439689161911172,0.532155679267235,0.567330181598663,-0.0026947639536967,2.94244948380347
0.07,0.585675412362472,83.9138479949921,84.3251538502734,0.0204437065926736,0.408414031957627,0.430005580186844,-0.173782628931046,2.88105566207139
0.08,0.67353407870502,83.9264994040714,84.3251538502734,0.0369721703222226,0.430293668705145,0.51660281419754,-0.3117887206376,3.29983311344044
0.09,0.761396139684357,83.9503047086503,84.3251538502734,-0.0303347872597542,0.543407719574993,0.534909009933472,0.136358408367517,2.74584113093379
0.1,0.849268126560633,83.9538871261026,84.3251538502734,0.0509187645451182,0.525403941126091,0.492534607648849,-0.366485142912894,2.62270920785889
0.11,0.937143465974124,83.8861876750563,84.3251538502734,0.0453308997768301,0.442600619700246,0.525305151939392,-0.346066358038486,3.29556669623728
0.12,1.02501250674472,83.916272518067,84.3251538502734,-0.0161166219048273,0.478131720930029,0.537186443805695,0.045662456406124,3.18917987623743
0.13,1.1128841804973,83.9371807484743,84.3251538502734,-0.0107763149738315,0.45823588792372,0.506916522979736,0.0181142693645581,3.11413531999188
0.14,1.20076515722866,83.9529352137816,84.3251538502734,-0.088628125566482,0.611706857157776,0.568220674991608,0.477196607440189,2.56039899344557
0.15,1.28865204060814,83.9444073619603,84.3251538502734,-0.013018961458373,0.482286227157376,0.476321667432785,0.00785327393028241,2.78321014345217
0.16,1.37652800441137,83.9589180134001,84.3251538502734,-0.0816428443569272,0.52064676791931,0.476888835430145,0.456718336934475,2.53305295966033
0.17,1.46441158865231,83.909510164491,84.3251538502734,0.0505697810354298,0.506021873313462,0.559985518455505,-0.325191447534816,3.12522983071028
0.18,1.55227729343857,83.9492882177979,84.3251538502734,0.0658822647010236,0.530989712468286,0.565419375896454,-0.42979651630552,3.00526133341918
0.19,1.64014106515258,83.9084302092636,84.3251538502734,-0.0518206618986176,0.533097731521194,0.562926590442657,0.306351630433289,3.01146564502766
0.2,1.72802242331968,84.004772212472,84.3251538502734,0.0429039439142353,0.467469964850475,0.532487332820892,-0.262392760634139,3.21806446400647
0.21,1.81589567737153,83.9065289209206,84.3251538502734,0.018753188606258,0.493876342910161,0.503154635429382,-0.114446700260513,2.87442839769718
0.22,1.90376882187072,83.8944677038242,84.3251538502734,-0.0178860172074837,0.485164801380149,0.50881427526474,0.0876723941447077,2.99391638661915
0.23,1.99164258208888,83.9222249431265,84.3251538502734,-0.0528539135526005,0.530778020616629,0.507123172283173,0.313170018324962,2.69215301391927
0.24,2.07952696628379,83.8964642802861,84.3251538502734,0.0438107159788594,0.488213620778898,0.488404393196106,-0.290252107586438,2.84030788191439
0.25,2.16738653593121,83.9491546961458,84.3251538502734,0.0180271689921346,0.452865268705804,0.523670434951782,-0.190357983817268,3.28260934480659
0.26,2.25526037551695,83.8934500006334,84.3251538502734,-0.0274405508186865,0.502143203944068,0.500694811344147,0.129333254607426,2.84283640543273
0.27,2.34315363956643,83.9334235926003,84.3251538502734,0.0693780686398154,0.505015210019899,0.481388866901398,-0.464589859268741,2.70004414887703
0.28,2.43102797810121,83.910351020738,84.3251538502734,0.0350388668034005,0.497518438216432,0.491192489862442,-0.292740293480859,2.78223737924502
0.29,2.5189093860538,83.8794585756133,84.3251538502734,0.00762465419969216,0.539823970920162,0.486768811941147,-0.11134642404334,2.52222269275659
0.3,2.60678366650361,83.9351943595254,84.3251538502734,-0.0268203089017957,0.462207979112039,0.508902788162231,0.0870657604707504,3.10978468629963
0.31,2.69466984276841,83.956891689632,84.3251538502734,0.0716413431464412,0.505990528164689,0.480992704629898,-0.509975961633775,2.66771087154121
0.32,2.78253893046352,83.9322142272974,84.3251538502734,-0.0645568277249393,0.512895238480331,0.571372509002686,0.301449066876033,3.18973125613291
0.33,2.87040329552698,83.9408056952962,84.3251538502734,0.00457569446374806,0.574680176012546,0.533345401287079,-0.0892335804002761,2.58894176729419
0.34,2.95829361856576,83.9936128233027,84.3251538502734,0.0959663715248951,0.561704092965987,0.542144000530243,-0.643574987422305,2.71958224908866
0.35,3.04616516174591,83.955245787684,84.3251538502734,0.0498872940692013,0.502971569429116,0.534423232078552,-0.40511424549061,3.01036591410361
0.36,3.13403890438995,83.9290255068015,84.3251538502734,-0.0725686125829136,0.532021852095753,0.537790656089783,0.37015812443867,2.87242220383315
0.37,3.22190961939315,83.9954682292977,84.3251538502734,0.0326560092961619,0.468931524945603,0.549479961395264,-0.250343417635503,3.32672722653336
0.38,3.3097910100523,83.9656722098595,84.3251538502734,-0.0526219157776423,0.621410584144803,0.584700763225555,0.257586769078408,2.60272910238282
0.39,3.39766030188012,83.8506103705223,84.3251538502734,-0.0536857431988605,0.406525438591233,0.482142627239227,0.271928391661423,3.31171958645662
0.4,3.48552716850019,83.9625676112899,84.3251538502734,-0.0366875920758904,0.548509224183812,0.533002197742462,0.217780703812798,2.74985263446422
0.41,3.5734122730916,83.9682123507802,84.3251538502734,0.03447463223671,0.55888616834412,0.557281494140625,-0.232319020484378,2.83886579879488
0.42,3.66128050826492,83.9537059629502,84.3251538502734,0.0659320511313259,0.48694725169601,0.539420962333679,-0.462445471743617,3.16760533311568
0.43,3.74913985272266,83.9165808269652,84.3251538502734,-0.0579704969641922,0.540485836614576,0.558912754058838,0.343941239174205,2.98276065119313
0.44,3.83702360445117,83.9102331130335,84.3251538502734,0.050189439884225,0.517500802122417,0.503236949443817,-0.327596834914871,2.7913809658418
0.45,3.92490671780495,83.8881959136329,84.3251538502734,0.0635886088297827,0.403627453566562,0.468789130449295,-0.428418600856497,3.23940645629388
0.46,4.0127781827798,84.0209204020031,84.3251538502734,0.106433513688822,0.640426541758026,0.594308078289032,-0.688702207899929,2.60179138147466
0.47,4.10066021627997,83.9333998410654,84.3251538502734,-0.00913355338775892,0.509514267414394,0.522248268127441,0.0412684414947339,2.92543047977281
0.48,4.18854884741674,83.9065548020437,84.3251538502734,0.00615169158136639,0.517170112242175,0.495252817869186,-0.0720090699907882,2.70958190349465
0.49,4.27641083414032,83.867996408743,84.3251538502734,-0.0572416059261681,0.441992718257965,0.480971723794937,0.288967253609074,3.10451540846354
0.5,4.36428603842629,83.974952530954,84.3251538502734,-0.0947742508359248,0.58481215617837,0.578069984912872,0.555134183568503,2.81619008910963
0.51,4.45217830967454,84.0203530275096,84.3251538502734,0.0921505681405769,0.592449970831796,0.587591230869293,-0.570038097643679,2.83315392784242
0.52,4.54004964183499,83.9961103980919,84.3251538502734,0.0258226404017831,0.563671261714562,0.574676394462585,-0.184796459470897,2.91079424348333
0.53,4.62793224798162,83.9160884803812,84.3251538502734,-0.0598807891710374,0.489100265990707,0.482653200626373,0.352116833367853,2.81511680024757
0.54,4.71581576242326,83.9906349105875,84.3251538502734,0.0575734961645751,0.460747697088152,0.501444876194,-0.358900034454847,3.08757410676371
0.55,4.80369714564917,83.9471810992821,84.3251538502734,0.0332780981700827,0.559750845689687,0.584767401218414,-0.2459328230625,2.97765363065893
0.56,4.89158315573656,83.9157361566881,84.3251538502734,-0.0973091666158309,0.483639017394282,0.518534004688263,0.542372104179356,3.04444997872966
0.57,4.97943932707159,83.934982623089,84.3251538502734,-0.00427348181535445,0.524563100726915,0.539900183677673,0.020770238409516,2.92961313494953
0.58,5.06732532144189,83.8600315336748,84.3251538502734,0.0415074942565845,0.460640786207671,0.434101313352585,-0.259854111023287,2.6800366821172
0.59,5.15520010280169,83.9324130397361,84.3251538502734,0.0496758281895246,0.488363704555301,0.553285717964172,-0.325469457345971,3.22094956749316
0.6,5.24306364164217,83.9674285915491,84.3251538502734,0.0956436520422586,0.609616069086432,0.565855860710144,-0.589128967223087,2.59024623116164
0.61,5.33096257619035,83.9754056638755,84.3251538502734,0.0462625048747321,0.414395108026538,0.407777339220047,-0.292190586829038,2.79536591565344
0.62,5.4188345638367,83.9346885416571,84.3251538502734,-0.0279789504890447,0.492855377643803,0.534538328647614,0.144873690839627,3.06546661087049
0.63,5.50671503807591,83.9416273523417,84.3251538502734,-0.0246783435379124,0.505222566721361,0.540547966957092,0.132068773908304,3.05083410082759
0.64,5.59458618257045,83.9735116579371,84.3251538502734,0.00246561642252873,0.492618551698032,0.535153210163116,-0.0395850166831323,3.08013817580416
0.65,5.68248111006523,83.9260792703193,84.3251538502734,-0.011737897206212,0.421198890008733,0.452118068933487,0.0380508127685101,2.9980811034753
0.66,5.77034499842725,83.9663071058098,84.3251538502734,-0.0465363939773319,0.471703199003277,0.500087022781372,0.211723335400128,3.01184944752232
0.67,5.85821472427498,83.9065063926876,84.3251538502734,-0.10708108481215,0.514647592563983,0.509563207626343,0.602716383422608,2.80397935983656
0.68,5.94611204884285,83.830292896712,84.3251538502734,0.0588452244555891,0.477865239450838,0.46408349275589,-0.391943987069145,2.73650498986315
0.69,6.03398813230943,83.9295948274638,84.3251538502734,0.0621037658934321,0.407431070239342,0.476992309093475,-0.454638602024318,3.21583091159977
0.7,6.12185321818687,83.9297668552296,84.3251538502734,-0.0858541394650369,0.524556149352551,0.526135563850403,0.442553987925665,2.84612826551397
0.71,6.20971481994731,83.960905685369,84.3251538502734,0.01825256539405,0.517821926770857,0.539586365222931,-0.183288850554958,2.97958781037387
0.72,0.0144215643004726,83.9523662807878,84.3251538502734,0.0147597572077822,0.539556883083296,0.523295223712921,-0.194973073649303,2.71999513711679
0.73,0.102293528377252,83.9696075070706,84.3251538502734,-0.0368047620978904,0.541346018191585,0.551052391529083,0.137018465270646,2.90799051912202
0.74,0.190171350746249,83.9486869406363,84.3251538502734,-0.0470007389842701,0.468027021813397,0.509818434715271,0.244631990361389,3.07703629495308
0.75,0.278042260891861,83.9481666874732,84.3251538502734,0.0289189433466263,0.534114321435435,0.5191929936409,-0.224864025534869,2.76451436303159
0.76,0.365911499340662,83.9115137327228,84.3251538502734,0.0763635223017366,0.463011153770633,0.496081918478012,-0.539300528933673,3.04775097996109
0.77,0.45379273513285,83.900666920027,84.3251538502734,-0.063679201037876,0.494496707605049,0.492267966270447,0.33503504946326,2.83084712589485
0.78,0.541687987245786,83.9161802489079,84.3251538502734,0.0473155699917599,0.464895817536137,0.527093410491943,-0.32567269688646,3.19519312922049
0.79,0.62956338140858,83.8823783688166,84.3251538502734,0.0533171184570282,0.430924143059792,0.483352780342102,-0.375993229291225,3.12076479179577
0.8,0.717439903920082,83.9858145329136,84.3251538502734,0.079551094934989,0.618276518826493,0.563513696193695,-0.5326559397263,2.4989918543043
0.81,0.80531284604402,83.9029356186195,84.3251538502734,0.0283303359572362,0.431114689177618,0.494931757450104,-0.209368441465364,3.19313557287735
0.82,0.893201584618212,83.8878932024253,84.3251538502734,0.0424603663382867,0.516807505888125,0.512368321418762,-0.31018421721129,2.77697230056468
0.83,0.981064553154051,83.9259919879864,84.3251538502734,0.0177386328744206,0.443814711633913,0.513680875301361,-0.206223689060185,3.2515043022435
0.84,1.06892895705687,83.9051347031004,84.3251538502734,-0.00938782163186641,0.496867714544123,0.50667142868042,0.0164759144454318,2.89512547784979
0.85,1.15681652715593,83.9894827455616,84.3251538502734,0.0672708112618999,0.545140051319836,0.512218117713928,-0.44679581126861,2.64267928435009
0.86,1.24468785310627,83.9440565448081,84.3251538502734,0.0562454599336924,0.463593331273095,0.567515194416046,-0.411190249215054,3.44667515931671
0.87,1.33255475386107,83.9405242807001,84.3251538502734,-0.0471366437090916,0.541115711107869,0.536963105201721,0.248277872487941,2.83122574668596
0.88,1.4204238503355,84.0176847181449,84.3251538502734,0.00823824738092319,0.476818149334255,0.54977023601532,-0.0986161995843084,3.29717137780886
0.89,1.50830563358413,83.9348106513013,84.3251538502734,0.0244170626409473,0.538952575406789,0.541078329086304,-0.213661097675473,2.85379396448422
0.9,1.59618155482847,83.9245446496851,84.3251538502734,0.0364837244487736,0.462949608583313,0.51366513967514,-0.274812598028395,3.16964669626905
0.91,1.684052616666,83.9736062744413,84.3251538502734,-0.0468109444537259,0.571628383767761,0.556293189525604,0.276554178869218,2.75092902260171
0.92,1.77193849047288,83.9580371573839,84.3251538502734,-0.00348922333781974,0.418788886706594,0.456636995077133,0.0112163888030832,3.0845131854908
0.93,1.85981391133079,83.9060097827057,84.3251538502734,-0.0309765059057151,0.414181392040679,0.462454706430435,0.158895016497434,3.13232697822008
0.94,1.94769180312991,83.9594194158922,84.3251538502734,-0.0674977866972477,0.545696418323652,0.530149817466736,0.394880018283765,2.75268729308722
0.95,2.03557588877465,83.9423074907945,84.3251538502734,0.0362390789439671,0.466648362777956,0.519267380237579,-0.23702226085838,3.1603182727473
0.96,2.12344167028555,83.8567958249377,84.3251538502734,0.0596274400952835,0.460435456575065,0.469361573457718,-0.39723124618816,2.88849649683499
0.97,2.21131330373173,83.9487300083995,84.3251538502734,-0.117534778437866,0.522908377801159,0.547094881534576,0.658362107961733,3.01223484322466
0.98,2.29919001174434,83.9044373634604,84.3251538502734,-0.0365368786917108,0.480255865790985,0.539566040039062,0.209811918854419,3.19750422297188
0.99,2.38708092483084,83.8671554475151,84.3251538502734,-0.0155991645921556,0.42442588621501,0.450252771377563,0.0697400114662461,2.98799921039869
1,2.47495251871181,83.8541368676212,84.3251538502734,-0.0284766413554945,0.402500073187617,0.47484827041626,0.122879577990958,3.27876567501304
1.01,2.56283024724911,83.9133777252948,84.3251538502734,-0.0246342391182443,0.494194963928248,0.480044960975647,0.122613177495482,2.74988169754071
1.02,2.65071071236752,83.9321496432705,84.3251538502734,0.0336410390197049,0.559676639571128,0.58458423614502,-0.221843140560184,2.99350150738193
1.03,2.73858595716879,83.8841604507317,84.3251538502734,0.0389229396294833,0.473385586549692,0.474630206823349,-0.267598068806025,2.82705018802761
1.04,2.82647742445643,83.973765690725,84.3251538502734,-0.0279836159133739,0.575061682502169,0.603084802627563,0.135053949814582,2.98812093165564
1.05,2.91435907223111,83.9495768408601,84.3251538502734,0.045666548149909,0.399229042900598,0.455123603343964,-0.291581504517316,3.14516505591235
1.06,3.00224113655562,83.9138992540778,84.3251538502734,0.0725839698192456,0.488111257156735,0.474513679742813,-0.490297130095428,2.72000315549015
1.07,3.09011124254454,84.002144175976,84.3251538502734,-0.00646600413042597,0.495510894014363,0.579369187355042,-0.0382693173015947,3.33582547390316
1.08,3.17798087015229,83.9526916700683,84.3251538502734,-0.00713889358324311,0.466437185427021,0.526154935359955,-0.0193863787418998,3.17966236097559
1.09,3.26587037528591,83.9205406535492,84.3251538502734,0.0616598167634282,0.419633613812758,0.435373812913895,-0.436048555304831,2.91018117222496
1.1,3.35372595194495,83.9701828168885,84.3251538502734,0.0398573139396805,0.512573106706164,0.559244215488434,-0.33887066311346,3.10790030853788
1.11,3.44161055997659,83.9230417199335,84.3251538502734,-0.00637229407401774,0.492414519062259,0.465222507715225,-0.0341830806271695,2.66169196997992
1.12,3.52949569578844,83.9355108808499,84.3251538502734,0.045762680122153,0.505333208765411,0.476381033658981,-0.347170104401062,2.64449414371453
1.13,3.61736113400367,83.927036861478,84.3251538502734,0.120597415765903,0.525313725935847,0.547429800033569,-0.83136409978388,2.94769899819985
1.14,3.70523335025564,83.9450111114682,84.3251538502734,0.00407902604849314,0.484654280659336,0.538342773914337,-0.125849695504842,3.16901022097409
1.15,3.7931105450165,83.9012571767862,84.3251538502734,-0.045556255358181,0.513124059081452,0.516755998134613,0.195886456233013,2.845853828816
1.16,3.88098916471455,83.9151889146199,84.3251538502734,0.0242640988575629,0.537195180015148,0.563324689865112,-0.215273232686794,2.98746766395423
1.17,3.96885503065129,83.8441754536529,84.3251538502734,-0.0662510953379071,0.421882876555034,0.456419408321381,0.311773978141572,3.05263738136217
1.18,4.05673229872176,83.9085341416815,84.3251538502734,-0.00305875380594511,0.478846518729632,0.515713691711426,-0.056953724022502,3.06180017510603
1.19,4.14461915128932,83.9364016900439,84.3251538502734,0.0405875252754088,0.533120734611136,0.570570349693298,-0.319257017994131,3.07137120616759
1.2,4.2324861582619,83.8994990605161,84.3251538502734,0.0415723375463939,0.430666394023389,0.488088577985764,-0.343449819282279,3.18068850429722
1.21,4.32036244795052,83.9098782734283,84.3251538502734,-0.0716752191884961,0.50789183413695,0.492483556270599,0.349276003054245,2.75975348476079
1.22,4.40824851809704,83.9753033401602,84.3251538502734,-0.00122811859537422,0.407282098540305,0.392454743385315,-0.0541708547445653,2.73744471849666
1.23,4.49612758119811,83.9592600299046,84.3251538502734,0.0301567630583045,0.55879847244473,0.560689330101013,-0.240532333120814,2.83162612390191
1.24,4.58400598020521,83.8580805927084,84.3251538502734,-0.06220533493517,0.437236368359783,0.458966791629791,0.31423713059476,2.9688082732086
1.25,4.67186612211767,83.9536946996198,84.3251538502734,-0.069519957115677,0.480615164919484,0.525871574878693,0.382104797196941,3.11087664035299
1.26,4.7597372465247,83.8929483221991,84.3251538502734,0.0712358763417448,0.448886117086153,0.482684195041656,-0.465940605883596,3.06437263172647
1.27,4.84759940195911,83.9559063106885,84.3251538502734,0.0755084363621908,0.489507813713739,0.540510654449463,-0.526395293327264,3.16799635116923
1.28,4.93546410960382,83.9114886907244,84.3251538502734,0.0397887863880523,0.474051518496085,0.50718080997467,-0.272086619746588,3.09029403869808
1.29,5.02335257296275,83.924901333042,84.3251538502734,0.0440104843498661,0.432889297232997,0.453390598297119,-0.287874646512012,3.002146059248
1.3,5.11122444150387,83.9261945477871,84.3251538502734,0.0988657461317446,0.526648303924705,0.542641222476959,-0.656549615016337,2.96449185229356
1.31,5.19910825947182,83.9775274755259,84.3251538502734,0.0222446746154814,0.607987485089316,0.557932496070862,-0.1964497983421,2.58391029878419
1.32,5.28699429694638,83.9349675248255,84.3251538502734,0.024075533586194,0.485421681484679,0.45732781291008,-0.198459118641389,2.67803073120233
1.33,5.37489100586482,83.9562838358766,84.3251538502734,0.0765574952792319,0.428006510071413,0.429587066173553,-0.50804896825839,2.84342195378278
1.34,5.46276640904033,83.9759630048996,84.3251538502734,-0.00720030552442352,0.4032314716183,0.413352489471436,-0.0352543801858867,2.8927524069156
1.35,5.55063741853417,83.9073985416283,84.3251538502734,-0.0921281038410768,0.50346750054629,0.489098459482193,0.495257757387421,2.74632580921859
