t,theta,omega,r,i_d,i_q,i_q_ref,v_d,v_q
0,0,0,120.27928054513,-2.20983774686451e-24,0,0,0,0
0.01,0.0614377071752414,120.587092740696,120.27928054513,0.132925124207174,7.52768037787841,10,-0.904641410089948,18.6653762939694
0.02,0.186982091927318,119.660598039654,120.27928054513,0.0307082758271745,0.797173039447638,0.761196494102478,-0.294226221294474,3.35839207371928
0.03,0.312302284488668,119.644461913293,120.27928054513,0.0367197582099681,0.802275468346151,0.780520081520081,-0.316070777003459,3.4573572087665
0.04,0.437635216279223,119.691444661651,120.27928054513,-0.0546269554269988,0.797119654601564,0.714096009731293,0.236877761005268,3.09037415699401
0.05,0.562968727123239,119.707256248135,120.27928054513,0.014500996937818,0.775565402010587,0.687587320804596,-0.151112682123965,3.04963005115701
0.06,0.688301066678797,119.65505861629,120.27928054513,-0.119664223936575,0.658124437062296,0.678083658218384,0.621130309300034,3.6823140296884
0.07,0.813624059818027,119.646054717597,120.27928054513,0.103326952396595,0.700468609674299,0.722756624221802,-0.731886878087472,3.68770566772292
0.08,0.938944276057993,119.629328454124,120.27928054513,0.00920905012560416,0.683239895386958,0.710497856140137,-0.164701749877659,3.71570594033539
0.09,1.06427051465404,119.722883453096,120.27928054513,-0.0211772302366867,0.866000558413832,0.807845771312714,0.0498336636568388,3.20444064142569
0.1,1.18959319998657,119.641448007564,120.27928054513,-0.00668515555291233,0.797260233401114,0.770813405513763,-0.0358409852317961,3.40982423584863
0.11,1.31491925001492,119.716821515233,120.27928054513,-0.0175827446280496,0.807781960771155,0.748403608798981,0.0198507080802662,3.21704827603476
0.12,1.44024186572881,119.692301800361,120.27928054513,-0.0328102465226565,0.727451917650995,0.723249971866608,0.0994945417952104,3.54805502805373
0.13,1.56555742466353,119.69959402001,120.27928054513,0.0205742751926133,0.771555265184594,0.763316035270691,-0.238537773202468,3.52153271655523
0.14,1.69088270181186,119.751111012163,120.27928054513,-0.0192158735882462,0.844008658270588,0.783926844596863,0.0167402686117501,3.19893138054545
0.15,1.81620170868228,119.671565500241,120.27928054513,0.0467738060082674,0.761934698639734,0.781062662601471,-0.376768729620866,3.69068782941012
0.16,1.9415212838581,119.662693646392,120.27928054513,-0.000682067391236829,0.786768896870697,0.724439561367035,-0.0831930573768289,3.21724252128941
0.17,2.0668503894982,119.641416145918,120.27928054513,0.0192998812734576,0.748031240383235,0.705292999744415,-0.213815848320693,3.33659327172525
0.18,2.19217336878927,119.715424071619,120.27928054513,-0.0659676007020258,0.786732409961038,0.750530600547791,0.277357490678632,3.38159757279644
0.19,2.31750271017776,119.707930212831,120.27928054513,-0.0743209940030834,0.70548595665079,0.733631014823914,0.337060709758959,3.75189015984088
0.2,2.44281714933758,119.644575571894,120.27928054513,0.0546081391666459,0.678351312205423,0.727729439735413,-0.438855485708674,3.88513382983702
0.21,2.56813700450279,119.633143067201,120.27928054513,0.00900202287134683,0.780039569795936,0.722561776638031,-0.14014558920563,3.25371507434403
0.22,2.69347221254261,119.710898400287,120.27928054513,0.0763828123720223,0.811578350587887,0.733077943325043,-0.552714619154034,3.1243713443553
0.23,2.81880372371768,119.667990796968,120.27928054513,-0.0346348216260052,0.747904173117239,0.718199491500854,0.10662810599665,3.42143257651319
0.24,2.94412953041632,119.650073715916,120.27928054513,-0.0287827765942557,0.75198003519943,0.687411367893219,0.0498765531039976,3.21309601186659
0.25,3.06945699587966,119.76593388137,120.27928054513,-0.022096082544871,0.698838497241299,0.766015350818634,0.00494284831372035,3.99015144493731
0.26,3.1947853278765,119.665428530992,120.27928054513,0.052807122245331,0.717600553679216,0.686368882656097,-0.423771572193259,3.38083443996134
0.27,3.32011208480102,119.711370279583,120.27928054513,-0.0252686653346,0.826182980334496,0.754042625427246,0.0471830961021915,3.13171654158259
0.28,3.44543917398785,119.676693029446,120.27928054513,0.00628128958805257,0.718444313039547,0.71043872833252,-0.143678292473888,3.52497149406436
0.29,3.57076196387919,119.670652411076,120.27928054513,-0.0469326703720922,0.843129124060512,0.765782177448273,0.184671214735647,3.11564593484161
0.3,3.69608912690045,119.667719330401,120.27928054513,-0.0322879946952906,0.700978032443134,0.672529458999634,0.0782219592633034,3.41476041684142
0.31,3.82141277547968,119.699020308453,120.27928054513,-0.0179567967571995,0.656564536470677,0.704341411590576,0.00109988620468501,3.86447601434383
0.32,3.94673012151176,119.70055388149,120.27928054513,0.137325467057977,0.796685573509176,0.808181881904602,-0.949791380945328,3.64234707666135
0.33,4.07205796294362,119.678889843247,120.27928054513,0.0644834320746243,0.725143741711971,0.736834704875946,-0.493536211483709,3.63901170438825
0.34,4.19738167300763,119.697521920868,120.27928054513,0.0233413451568028,0.804167661637558,0.739514648914337,-0.233695772996947,3.1902611824474
0.35,4.32270608213456,119.652199037872,120.27928054513,-0.0554885256884878,0.764004452618582,0.691969931125641,0.250250655028096,3.1552661502867
0.36,4.44803493061778,119.675131387439,120.27928054513,0.0498717823685533,0.720629857364598,0.656563580036163,-0.408620341143344,3.20019994186597
0.37,4.57336859176838,119.699150290367,120.27928054513,-0.118729566620259,0.661096853694507,0.70040100812912,0.598179208824572,3.80405096744023
0.38,4.69869124869386,119.675095783485,120.27928054513,0.021077186213049,0.763937360685382,0.747524201869965,-0.238381536328025,3.45840720623498
0.39,4.82401556567693,119.658063422685,120.27928054513,-0.00226862398340716,0.743086462473874,0.710559666156769,-0.0935922561193222,3.36049588909618
0.4,4.94933567445337,119.661419857851,120.27928054513,0.0419194233669797,0.777423916056516,0.693321347236633,-0.324984878361762,3.06488992805219
0.41,5.07466045944292,119.674152752637,120.27928054513,-0.0312287547903513,0.795567065860307,0.742409348487854,0.115785731878009,3.25769388762307
0.42,5.1999859512295,119.661397920439,120.27928054513,0.0432508545375038,0.676532288027572,0.673275291919708,-0.339472659240519,3.56341990155331
0.43,5.3253081870106,119.670270656861,120.27928054513,-0.0321645900086382,0.691776054990123,0.685541689395905,0.116105943624645,3.54965664458197
0.44,5.45062971307339,119.676583506136,120.27928054513,0.119992051385686,0.727327276104931,0.751002311706543,-0.823330816559208,3.7202445563581
0.45,5.57595995628837,119.693233008675,120.27928054513,0.0699451449237863,0.688194807372049,0.73718535900116,-0.50827651886177,3.86119124555654
0.46,5.70128529631435,119.614374151511,120.27928054513,-0.00474495415216775,0.772392710208313,0.708271622657776,-0.0622554784833844,3.18815149846292
0.47,5.82660625675159,119.645844491245,120.27928054513,-0.0153130339214405,0.799731699380064,0.772998332977295,0.019914839484756,3.43462157365042
0.48,5.95193627071004,119.672540655425,120.27928054513,0.0120734741553678,0.78789322434167,0.741498827934265,-0.154519161951472,3.31833903236293
0.49,6.07725798219591,119.696667385879,120.27928054513,-0.0920180332451941,0.762893827595848,0.739989697933197,0.460388281176651,3.46506815226535
0.5,6.20257310490559,119.6838408109,120.27928054513,0.0580633758392318,0.66724349933077,0.706299722194672,-0.437830647043332,3.84194915361528
0.51,0.044715022382384,119.660174101386,120.27928054513,0.0941150564705137,0.741553375243542,0.715743124485016,-0.65888482202412,3.43908881657026
0.52,0.170043789092917,119.646491440297,120.27928054513,-0.0189033438919246,0.7852892608931,0.711738467216492,0.0515256521423909,3.15000573023676
0.53,0.295372584503667,119.69460937053,120.27928054513,-0.0134306657817462,0.853587586757494,0.820874631404877,0.0224698596474874,3.39783321231054
0.54,0.420697557971061,119.704854880731,120.27928054513,-0.00933271797789811,0.808098680721552,0.735537230968475,0.000547743139367687,3.1676375374096
0.55,0.546033865163388,119.695904990821,120.27928054513,-0.0510875798183536,0.772589104010037,0.74079155921936,0.256093228308733,3.39713800076396
0.56,0.67135474056978,119.693654210462,120.27928054513,-0.0826824236812003,0.692373290718701,0.719725489616394,0.42694176868099,3.74714697315689
0.57,0.796666641722756,119.673846776261,120.27928054513,0.0507432183488906,0.678913071227315,0.713451266288757,-0.344167432557671,3.79963153951836
0.58,0.921989871792387,119.707272955698,120.27928054513,-0.0246708661893085,0.823503847274384,0.740091741085052,0.0964283769034203,3.09416134085598
0.59,1.04731874823802,119.626434329961,120.27928054513,-0.0570809427969191,0.767372598617674,0.697978258132935,0.285921954686659,3.18305776634619
0.6,1.17264722455251,119.624408262394,120.27928054513,0.0452185740727323,0.767463000655789,0.700037062168121,-0.342607409031911,3.20222501209554
0.61,1.29797667951297,119.653172939056,120.27928054513,-0.0710750708766444,0.678229199106641,0.649646937847137,0.336717876680016,3.43579015046936
0.62,1.42330401067022,119.738501493287,120.27928054513,-0.07013120801782,0.695392335556818,0.689306497573853,0.30468564861224,3.55102631303832
0.63,1.54863212416196,119.631856039569,120.27928054513,0.112686298819676,0.693777615322383,0.689998984336853,-0.783031170898496,3.54464834823461
0.64,1.67396259258549,119.694495195083,120.27928054513,0.030928747865519,0.813212879752871,0.75973916053772,-0.29344938507387,3.24278813526111
0.65,1.7992982480079,119.690774790108,120.27928054513,0.00562826260168649,0.839441096326988,0.775754272937775,-0.130811675437292,3.17844529221902
0.66,1.92462682102094,119.656604806583,120.27928054513,-0.0311815795281852,0.688573967165366,0.675207316875458,0.0777162449483555,3.49149501614386
0.67,2.04994933285273,119.665921354308,120.27928054513,-0.146531980986698,0.716416683312931,0.792326509952545,0.794555024621929,4.03946465194614
0.68,2.17526460739319,119.716094207691,120.27928054513,-0.0543957979764867,0.695369585905175,0.70937180519104,0.208126941040214,3.67780495970813
0.69,2.30059572405446,119.676244994316,120.27928054513,0.0790389150182297,0.674426750843569,0.753389835357666,-0.575966818681737,4.04353945517022
0.7,2.42592179456203,119.69907827709,120.27928054513,0.0281302265624661,0.695397538969022,0.711998999118805,-0.265537805995039,3.66630985776635
0.71,2.55124685718159,119.636463811675,120.27928054513,-0.00175567190765635,0.775262342936743,0.707791090011597,-0.0719149476290057,3.16859680293307
0.72,2.67658281156135,119.701227579436,120.27928054513,-0.0429953808806452,0.79512202551801,0.730400383472443,0.16882337762649,3.18029010911443
0.73,2.80190690398855,119.61247792469,120.27928054513,-0.0913286394861671,0.741088550887702,0.716888308525085,0.452091925052028,3.4294696317667
0.74,2.92722746863336,119.643704118624,120.27928054513,-0.0340084596297401,0.641134697319477,0.702935814857483,0.104947845330881,3.94441641104739
0.75,3.05256126038428,119.65319399565,120.27928054513,-0.0495774318742709,0.668884253500351,0.688599407672882,0.194570366560025,3.66346257388454
0.76,3.17787097489876,119.678680887829,120.27928054513,0.0804226006296653,0.692901673377029,0.733859658241272,-0.550942997632954,3.81541937665145
0.77,3.30319984791639,119.69234270655,120.27928054513,0.0748738751766784,0.799214731871155,0.739046275615692,-0.533573101601531,3.2127984180328
0.78,3.42852175839251,119.68040216374,120.27928054513,-0.0438438357480853,0.798439440010177,0.742787539958954,0.199942578504467,3.25552734883755
0.79,3.55385127909205,119.727895269395,120.27928054513,-0.0285197098351992,0.791967975344051,0.730980455875397,0.116031360945571,3.22530049897099
0.8,3.67917016292112,119.685050502166,120.27928054513,-0.0604624858477442,0.708449405617023,0.71405827999115,0.270762604029126,3.63075730419172
0.81,3.80450100226989,119.745310115381,120.27928054513,0.0851580184540909,0.7464001464405,0.740721344947815,-0.600899263474253,3.53784238724546
0.82,3.92983454448721,119.643835928719,120.27928054513,0.00644870873490266,0.691750695669088,0.717904984951019,-0.139762862157303,3.71122756701495
0.83,4.05515867127714,119.626989988267,120.27928054513,0.058763371664713,0.751848424423452,0.719749331474304,-0.428601414260748,3.37030013626775
0.84,4.18048665313299,119.629857238569,120.27928054513,0.0228631664792105,0.784021740603009,0.745452523231506,-0.235598586658118,3.34013186682977
0.85,4.30581372417338,119.636152361462,120.27928054513,-0.0194333920203855,0.763595318185723,0.709165453910828,0.0153328231263908,3.24850965761229
0.86,4.43114763958728,119.683705983551,120.27928054513,-0.0315018231803518,0.715581099275388,0.70318478345871,0.0738024830589608,3.48609215624078
0.87,4.55646515654484,119.72095573377,120.27928054513,-0.0359012554963557,0.745981440128478,0.768882572650909,0.0632836578492625,3.69197562454965
0.88,4.68178849448576,119.665858205988,120.27928054513,-0.0130196749612757,0.800085133544965,0.741222202777863,-0.0336697031842516,3.19599868455271
0.89,4.80712559624145,119.68408669025,120.27928054513,-0.00658906799277126,0.81124826675918,0.737623929977417,-0.0741112504365537,3.09364488801829
0.9,4.93246214864361,119.665626309735,120.27928054513,0.0112408458351296,0.805626518757662,0.763248145580292,-0.180993035226798,3.27760517436424
0.91,5.05778948986934,119.614056842863,120.27928054513,-0.0293653178603759,0.64083254264698,0.646983325481415,0.0702095413878224,3.5742852323496
0.92,5.18310338418549,119.664325163072,120.27928054513,-0.102556484016546,0.704126820751193,0.731368601322174,0.507175791091206,3.72134910009643
0.93,5.30841797804772,119.702152238694,120.27928054513,0.0179393759205996,0.637812738606923,0.699383676052094,-0.188459382605129,3.93072793344705
0.94,5.43373853169395,119.66299959234,120.27928054513,-0.00893025877542836,0.640254123634854,0.670447409152985,-0.037309045436578,3.73958432885148
0.95,5.55906595895555,119.702034291554,120.27928054513,-0.029175239046505,0.826090274113965,0.756289184093475,0.0735820660988022,3.13802782305206
0.96,5.6844019481173,119.718420966473,120.27928054513,0.0551662133515778,0.829977711358582,0.78764945268631,-0.440309515400928,3.29853978877813
0.97,5.80972832768295,119.701584174259,120.27928054513,-0.0778758055514694,0.798800382668254,0.762450635433197,0.363923065350746,3.34465914281677
0.98,5.93505509243656,119.630371042917,120.27928054513,-0.0546060764960342,0.689076487324115,0.658719420433044,0.241136641399954,3.38564501966323
0.99,6.06037257160865,119.707786899039,120.27928054513,-0.0575405933846195,0.690329535342735,0.702455222606659,0.243277703058852,3.64081803995812
1,6.18569206214388,119.706766006729,120.27928054513,0.0248231833577283,0.794674532546775,0.740838885307312,-0.218530741048913,3.23819456740112
1.01,0.0278332581679521,119.685503623141,120.27928054513,0.00694929019313573,0.771628821170749,0.78260999917984,-0.128114230284571,3.62666573446061
1.02,0.15316245793632,119.644767243214,120.27928054513,0.0363322192911333,0.731823329001062,0.724473774433136,-0.315715694604575,3.51641483289617
1.03,0.278482764126915,119.631100601793,120.27928054513,0.0356045577917722,0.751030734465052,0.710634291172028,-0.319426491334767,3.33645225344636
1.04,0.403806308575147,119.61105291311,120.27928054513,-0.119265963744492,0.71880108984694,0.683493316173553,0.621087588417213,3.37573431958209
1.05,0.529118371386376,119.684021823854,120.27928054513,-0.0298614519510515,0.655572429756641,0.718557298183441,0.0878267792055802,3.97411892978421
1.06,0.654443597329399,119.715349890909,120.27928054513,0.00131160359978526,0.732875744859517,0.759041130542755,-0.0933695347266399,3.73799988703644
1.07,0.779776090396844,119.712892697221,120.27928054513,0.00439535031873978,0.821992970755855,0.75353467464447,-0.103114442518419,3.15697215351804
1.08,0.905110628549737,119.63731535681,120.27928054513,0.0600763897192127,0.786631502511651,0.734873533248901,-0.444866800744355,3.24927890062982
1.09,1.03043286443391,119.68783700463,120.27928054513,-0.0458349292518148,0.797583475433136,0.757076442241669,0.185981572670915,3.33412229466867
1.1,1.15576021191353,119.661919085305,120.27928054513,-0.0114039389225846,0.761833225123148,0.748622953891754,-0.00532116066743758,3.50036869687595
1.11,1.28107154274846,119.695067131365,120.27928054513,-0.0347078161229358,0.662321906226774,0.711940765380859,0.107122464712055,3.89542051717051
1.12,1.40639882977129,119.627464192834,120.27928054513,0.070850324414528,0.558421861513616,0.633649289608002,-0.527219998639611,4.02928301271215
1.13,1.53171557066218,119.729326686495,120.27928054513,0.0249777303037235,0.82258253104056,0.757091820240021,-0.239749927147266,3.19080020256595
1.14,1.65704477701432,119.696950378657,120.27928054513,0.0556899175200229,0.801096147799673,0.736398279666901,-0.413682651455317,3.19685495310693
1.15,1.7823738924242,119.653485561826,120.27928054513,-0.0466761923748599,0.793594423029983,0.763953328132629,0.201865716414648,3.41310878363262
1.16,1.90770387959133,119.737253911839,120.27928054513,-0.0601933990656752,0.803739498139325,0.756041765213013,0.280355028199525,3.3058195284017
1.17,2.03302465873841,119.628381235071,120.27928054513,-0.0282524741193661,0.640344292173269,0.685552775859833,0.068791254162248,3.8644822077492
1.18,2.15834333154569,119.704809268492,120.27928054513,0.0225939306253915,0.695513278020586,0.727109313011169,-0.243068299264831,3.77222469630879
1.19,2.28366324153713,119.7044300709,120.27928054513,0.0229064034079666,0.71874029856896,0.752383530139923,-0.222960248354189,3.78681413013768
1.2,2.40898961617368,119.651935679226,120.27928054513,0.0740328058350273,0.798876040146085,0.768827795982361,-0.537950573107073,3.40924410618462
1.21,2.53431987038025,119.690563878634,120.27928054513,0.0570973205868254,0.76789564593565,0.77373206615448,-0.450135374193429,3.62871463535003
1.22,2.6596573258643,119.632732965324,120.27928054513,-0.00922720593351614,0.76430898200561,0.711350321769714,-0.0287273912360084,3.26973369095936
1.23,2.78498371207454,119.70375425382,120.27928054513,0.0181744086916978,0.679022805956114,0.697883367538452,-0.20885505333105,3.6994423647396
1.24,2.91029881315219,119.677267647407,120.27928054513,0.0198136451208378,0.685829049517831,0.701669871807098,-0.195468052429517,3.68003384280317
1.25,3.03562586691006,119.65866680133,120.27928054513,0.0552555037912106,0.740231650844637,0.72469699382782,-0.422882093452815,3.48413921450959
1.26,3.16094471224969,119.685576009248,120.27928054513,0.0735678000355611,0.768630385114927,0.794109761714935,-0.535885950021869,3.74699706555541
1.27,3.28627546596093,119.658357884995,120.27928054513,-0.0150029325650476,0.735137652973688,0.720120310783386,0.00239316096408822,3.50382727201014
1.28,3.41160430332083,119.660813052878,120.27928054513,-0.00462618414217431,0.719490007414831,0.674246728420258,-0.0864151814798475,3.32812135198006
1.29,3.53694227157058,119.637429026893,120.27928054513,-0.0750296041048135,0.617018341448964,0.663975238800049,0.340741881299101,3.86211993187083
1.3,3.66225556722855,119.687982035836,120.27928054513,-0.0826614542096445,0.692769837582602,0.724004745483398,0.365217435222354,3.77274375658461
1.31,3.78757249998799,119.693197500866,120.27928054513,0.0702919878565758,0.776130391803167,0.734769403934479,-0.511395605573668,3.33790232466681
1.32,3.91291856276648,119.689936927004,120.27928054513,0.0212615467896427,0.810082548591623,0.736049056053162,-0.222211256243869,3.11000259414642
1.33,4.03823970281748,119.632494586171,120.27928054513,-0.0475284583005553,0.787963525476828,0.741235673427582,0.217935744590993,3.293159297861
1.34,4.16355953373505,119.69527635293,120.27928054513,-0.0558354109313038,0.795655907631958,0.775384962558746,0.255145910688507,3.47027687675799
1.35,4.28888932102233,119.662132657052,120.27928054513,-0.0925647841077696,0.737345211389916,0.763374626636505,0.460448778610965,3.74326119154242
1.36,4.41420643995734,119.678274865539,120.27928054513,-0.0825669228546075,0.678535256546702,0.692501723766327,0.428403611937257,3.6710672720823
