t,theta,omega,r,i_d,i_q,i_q_ref,v_d,v_q
0,0,0,198.082018964536,-2.29562706309002e-24,0,0,0,0
0.01,0.0616550788464988,120.640186646021,198.082018964536,0.215467028034434,7.61420973760575,10,-1.39666520862613,18.0340274220136
0.02,0.24410589578219,197.386739367463,198.082018964536,-0.025954204353586,2.44927996583054,3.02854108810425,-0.12720199404149,9.12758176235809
0.03,0.450530248569881,197.099819348391,198.082018964536,-0.0679529583855311,1.24557339106241,1.30844557285309,0.129116878140986,6.06842268934924
0.04,0.656929256752095,197.16126434225,198.082018964536,0.0367070139728111,1.12587641552582,1.23094701766968,-0.531056509643102,6.37788182851811
0.05,0.863331300786248,197.020193221125,198.082018964536,-0.0151559757379496,1.09683900129797,1.12298393249512,-0.220294955722407,5.98165185308122
0.06,1.06972300789669,197.05519566459,198.082018964536,0.0418706571204862,1.20720268405615,1.28911066055298,-0.583927812292218,6.36522692574297
0.07,1.2761445887792,197.171924151275,198.082018964536,-0.0641497608517473,1.01393048685796,1.13453614711761,0.0297562840868035,6.63727058423079
0.08,1.4825659777277,197.101990457789,198.082018964536,0.057280756957712,1.22532712005184,1.26816582679749,-0.668157965165953,6.19385963098552
0.09,1.68898211678186,197.081926188797,198.082018964536,0.0501826953130736,1.17419396283843,1.17964661121368,-0.621215451883631,5.97740785378185
0.1,1.89540771319174,197.094173013867,198.082018964536,-0.0441466365135533,1.09610538509482,1.11454594135284,-0.0567010191719716,6.09423518856316
0.11,2.10183006177588,197.125758819192,198.082018964536,0.0998611891177677,1.22282850179221,1.23345148563385,-0.891139079657165,6.05445940690738
0.12,2.30825462535686,197.181807154139,198.082018964536,0.0306974665235834,1.09630435862375,1.1662505865097,-0.4848628628588,6.42712019112726
0.13,2.51469150088287,197.053471054244,198.082018964536,-0.0994623905407259,1.10184162697109,1.12366509437561,0.285816219800084,6.15484374641315
0.14,2.72111875617506,197.091159752357,198.082018964536,0.0983373835280441,1.17911834760408,1.20264387130737,-0.910720114141519,6.154584239151
0.15,2.92756411315547,197.180929873245,198.082018964536,-0.0162415140838175,1.07288571666797,1.12634193897247,-0.221694787347389,6.33846470872825
0.16,3.13398406398208,197.097859715058,198.082018964536,-0.0932558107719344,1.20481195734404,1.23461079597473,0.273470615392023,6.21522883435139
0.17,3.34041887824233,197.170670424287,198.082018964536,0.0527843562041653,1.21988240930309,1.24647295475006,-0.61113145252455,6.18027790327134
0.18,3.54686429449473,197.095554762569,198.082018964536,-0.0070860761802724,1.02068527062248,1.05197155475616,-0.232728308630026,6.22224424763447
0.19,3.75328278943297,197.144750803911,198.082018964536,-0.0368029544408227,1.2407801192538,1.23377072811127,-0.0536832758253159,5.99560789283512
0.2,3.95970597150159,197.156359728366,198.082018964536,0.0798679651051077,1.10604572134949,1.20310926437378,-0.769243021423925,6.64023089619949
0.21,4.16614346412859,197.128707504027,198.082018964536,0.0478161326670744,1.20184042825619,1.18690061569214,-0.571407281140544,5.97187382861235
0.22,4.37257120056403,197.149424318191,198.082018964536,-0.000927489258690573,1.19632078794056,1.15059316158295,-0.271637133293138,5.778557057645
0.23,4.57901458893016,197.163002592834,198.082018964536,-0.098171059610326,1.08051039920691,1.13101971149445,0.262229832420077,6.36093675568787
0.24,4.78545345163636,197.073794671892,198.082018964536,0.0748231435882819,1.16380475696227,1.14656281471252,-0.749679340963675,5.93796453166128
0.25,4.99187775461389,197.124938877346,198.082018964536,-0.0155095644289528,1.12414828789074,1.16741299629211,-0.210398019964955,6.30600129439311
0.26,5.19831093810782,197.153639313979,198.082018964536,-0.0428609885807945,1.16114351216761,1.20824909210205,-0.0430923184948599,6.35873466239311
0.27,5.40475253385739,197.124713853734,198.082018964536,0.0432924991040438,1.1818439696636,1.15306222438812,-0.568514456972701,5.87175325759039
0.28,5.61118794222566,197.176380908297,198.082018964536,0.059761372400202,1.11340644367948,1.18933653831482,-0.664758925061458,6.50568118576576
0.29,5.81762007688417,197.117609136926,198.082018964536,0.0289052005957422,1.2070981123612,1.2326568365097,-0.462428462028033,6.21330717088925
0.3,6.02405252180769,197.147823683434,198.082018964536,0.0540772686715081,1.17066678487666,1.23541784286499,-0.62668382779414,6.43451559935196
0.31,6.23050318045875,197.1502200126,198.082018964536,0.0642610863486227,1.07065588508564,1.11812782287598,-0.671562860723067,6.33128456860257
0.32,0.153743817673792,197.112823252666,198.082018964536,-0.0547099711102055,1.22706470712044,1.24448573589325,0.055445818297275,6.15143127340414
0.33,0.360174760401271,197.173610087652,198.082018964536,0.0808555581369524,1.12484677720636,1.22608661651611,-0.792075629623695,6.65541808297725
0.34,0.56661921848265,197.151185028637,198.082018964536,0.0520487367992415,1.19879053379843,1.16509592533112,-0.636984520590165,5.84873891766055
0.35,0.773048776664648,197.107254086594,198.082018964536,-0.0541420548946839,1.20702483889363,1.17752265930176,0.01039771736145,5.86009656391626
0.36,0.979487950286036,197.125002285556,198.082018964536,-0.084819933614976,0.984628234043468,1.08891296386719,0.195459153251839,6.67330902183149
0.37,1.18592780470797,197.119726346372,198.082018964536,-0.0918873746080641,1.2204061908786,1.16533970832825,0.257944971403996,5.70931939962075
0.38,1.39235181010496,197.156022567904,198.082018964536,0.020148792066812,1.22402457302783,1.22309052944183,-0.414022039181023,6.03132774358015
0.39,1.59879647288317,197.107919853899,198.082018964536,-0.00640572930810918,1.01709099575329,1.07136142253876,-0.27687463982239,6.37712515473888
0.4,1.80522418208733,197.130977146906,198.082018964536,-0.0356465272466859,1.24637292571031,1.1781849861145,-0.0977543974169097,5.62950899070986
0.41,2.01164973834853,197.253102486103,198.082018964536,0.0949670095651376,1.13057060403791,1.19357013702393,-0.893577515886949,6.43349611241079
0.42,2.21809446149318,197.162171690168,198.082018964536,-0.0816111565490934,1.20247878795957,1.21952390670776,0.158892012746478,6.15844201339452
0.43,2.42452794277856,197.187421354595,198.082018964536,0.0522253280658926,1.25699906484145,1.24904596805573,-0.651869426733921,5.98821621640161
0.44,2.63096182968905,197.100331086211,198.082018964536,0.00345263993256162,1.00384932386459,1.06890738010406,-0.345181533949804,6.44745722429918
0.45,2.83739679056957,197.089978126719,198.082018964536,-0.0874170488568587,1.18956380426798,1.18320596218109,0.202674900371592,6.00677657688661
0.46,3.04383202760618,197.182437381019,198.082018964536,0.0133716209876718,1.15507967032686,1.2183963060379,-0.418450392073906,6.41329980996042
0.47,3.25027302241129,197.10766143718,198.082018964536,-0.0424313833195205,1.05441597614498,1.10957479476929,-0.0805633413545866,6.38169990435511
0.48,3.45669925864769,197.112316384604,198.082018964536,-0.00380610437862916,1.20526465642257,1.21235609054565,-0.294905787258423,6.08741107836846
0.49,3.66313043408709,197.142259959869,198.082018964536,0.0372165027981762,1.10453656414128,1.21283638477325,-0.56487181114679,6.70496928301497
0.5,3.86956617686027,197.110346266678,198.082018964536,0.0460441238375526,1.15376752653335,1.14915835857391,-0.59433892746846,6.03781740583349
0.51,4.07598572744802,197.14124572311,198.082018964536,0.0476304774044205,1.11426497265456,1.156458735466,-0.571203151997317,6.32483807183763
0.52,4.28243208006119,197.223564655955,198.082018964536,-0.0513518366789544,1.13505600291045,1.20479238033295,-0.0226297850605656,6.49579311458903
0.53,4.4888686212831,197.169165410183,198.082018964536,0.00970265476428656,1.22391202594649,1.18801915645599,-0.390276068701644,5.85047220097631
0.54,4.69530481336049,197.202118770737,198.082018964536,-0.0111590676255323,1.14157193006048,1.13696503639221,-0.249876503339753,6.02514423786832
0.55,4.90175162159375,197.108094115518,198.082018964536,-0.104406203641651,1.11034014453935,1.14753985404968,0.315321255575489,6.2794399595722
0.56,5.10817845917442,197.112753541875,198.082018964536,0.111920651404872,1.2035617198166,1.18370127677917,-0.966597942542007,5.92477237558666
0.57,5.31461941366655,197.177435386582,198.082018964536,-0.00387402538893911,1.10646901205947,1.11652290821075,-0.250158233552021,6.10453862874079
0.58,5.52105470005665,197.110852949653,198.082018964536,-0.0566558851147081,1.13459469383385,1.17395734786987,0.0889326986178505,6.28709449645565
0.59,5.7274851640031,197.158608181648,198.082018964536,-0.00575313285931611,1.18188761078173,1.21160936355591,-0.249605239672609,6.21572147868352
0.6,5.93392688531178,197.141518667196,198.082018964536,-0.0138927263745771,1.03244108560599,1.09127044677734,-0.17302103785265,6.39997768348389
0.61,6.14035080903724,197.09932516926,198.082018964536,-0.00464358405449339,1.21109720495628,1.20809841156006,-0.246970815756485,6.02863634473028
0.62,0.0636087796191749,197.162026769932,198.082018964536,0.0120640672340123,1.13987622541173,1.20616221427917,-0.364866449658288,6.42624787132073
0.63,0.27005662118977,197.155452271407,198.082018964536,0.0720874876175516,1.14621755383136,1.09174013137817,-0.716026274635602,5.70133727773735
0.64,0.476493410896557,197.141242668007,198.082018964536,-0.0555868698438964,1.20645284671672,1.16218245029449,0.0482685491321256,5.73515788711566
0.65,0.682931992325901,197.209614526823,198.082018964536,-0.0519435509290021,1.03169224235969,1.14179611206055,0.00938688435808926,6.67984976867275
0.66,0.889373997539741,197.123179043053,198.082018964536,0.0636895702907532,1.22508116639297,1.247309923172,-0.676193575627803,6.14211672770614
0.67,1.09580304610674,197.144002657702,198.082018964536,0.0344419951335771,1.19971208504776,1.20318877696991,-0.510112012297742,6.02775667026576
0.68,1.30223945559489,197.153170857631,198.082018964536,0.0263669727310785,1.28466305098734,1.26556897163391,-0.488944975924648,5.91118564589401
0.69,1.50867100690487,197.085085938361,198.082018964536,0.0815346489472198,1.17154300350249,1.18271803855896,-0.811414637507677,6.07936820380597
0.7,1.71509940723204,197.236089472612,198.082018964536,0.105200176550928,1.18059427731149,1.16269302368164,-0.964993682407889,5.90990156201272
0.71,1.92153685149265,197.169834443547,198.082018964536,0.0346810158003701,1.26771215472155,1.22073721885681,-0.531101068881847,5.74503140643681
0.72,2.12797054790877,197.136814286328,198.082018964536,0.0495422188211327,1.19467468139876,1.18318772315979,-0.650895568882783,5.93752978635088
0.73,2.3344067310934,197.150452214209,198.082018964536,0.0158819025699067,1.12871092701517,1.13141095638275,-0.433890666729399,6.0423559154504
0.74,2.54082868111604,197.113967543851,198.082018964536,-0.0535755872174667,1.21215082590197,1.21937787532806,-0.0151138750990772,6.08272903823295
0.75,2.74726377662421,197.163456891973,198.082018964536,0.0554794474690211,1.13891169373634,1.21972250938416,-0.676435997525738,6.51464584368456
0.76,2.95371256595924,197.127370528633,198.082018964536,-0.0835175368766526,1.15224050401429,1.1233217716217,0.168361344724704,5.86125699527602
0.77,3.16014339752711,197.097207096113,198.082018964536,-0.0376867867591618,1.14832697432304,1.18850231170654,-0.112575275670778,6.26460798777011
0.78,3.36657566368224,197.201391471256,198.082018964536,-0.0392767934022996,1.05113383627302,1.14501345157623,-0.126701417017023,6.59551635477351
0.79,3.57301528031642,197.104857562538,198.082018964536,0.0317206216279876,1.14902989898589,1.14797782897949,-0.527325912732631,6.02787959932601
0.8,3.77944224003032,197.138816530882,198.082018964536,-0.0322438744123204,1.14112535682532,1.17824506759644,-0.113632166723327,6.24856338705283
0.81,3.98588300675075,197.241034322209,198.082018964536,0.0219731589363278,1.2334735068461,1.2087607383728,-0.468891202173167,5.89358395717127
0.82,4.19231832226469,197.113126279239,198.082018964536,0.0379177678410013,1.22497896290632,1.22983658313751,-0.556176332332281,6.05670428674037
0.83,4.39874315764855,197.179706384372,198.082018964536,0.00516730009986355,1.1327566790705,1.17146575450897,-0.353232823806347,6.26782001988631
0.84,4.60518014087453,197.111795622297,198.082018964536,-0.0931643981715466,1.14314349245576,1.1531343460083,0.242415452337647,6.10644619813122
0.85,4.81160700404789,197.106226861154,198.082018964536,0.0784498883668778,1.15107318253866,1.20652651786804,-0.786999940260701,6.36780037914634
0.86,5.01804684962352,197.21176015062,198.082018964536,-0.0296848222333414,1.09171026760999,1.17390012741089,-0.152423385091343,6.53589159792737
0.87,5.22448809830424,197.142099852852,198.082018964536,-0.0119412394084502,1.22351213025228,1.22148847579956,-0.241120879916428,6.02684735329965
0.88,5.43091594111262,197.131718611234,198.082018964536,0.021732620260687,1.16531956893904,1.21198713779449,-0.443558922549557,6.31491806946722
0.89,5.63735459542286,197.138017044841,198.082018964536,0.0326881783135048,1.11025287317708,1.0834733247757,-0.492693646592718,5.89257948407488
0.9,5.84378495775993,197.119979876373,198.082018964536,0.0172191912867327,1.2339835800983,1.23394989967346,-0.386751297527223,6.04635365853051
0.91,6.05021865458009,197.215958265168,198.082018964536,0.0108409755937985,1.16329886992274,1.23998558521271,-0.347075854048844,6.51115978519302
0.92,6.25666580543391,197.162383764742,198.082018964536,0.0138637163287566,1.20620080385123,1.20627498626709,-0.349195075051981,6.04612937882262
0.93,0.1799103604815,197.148191145607,198.082018964536,0.00347844049453372,1.18334495683698,1.23315489292145,-0.277263380395298,6.33549276735396
0.94,0.38635265199223,197.156197016988,198.082018964536,-0.0396940593449722,1.00032615136161,1.08896839618683,-0.0710696950979333,6.5780075547828
0.95,0.592784806904053,197.094872206619,198.082018964536,-0.0341363540795033,1.151517793546,1.1794193983078,-0.0707243175760374,6.2090202455532
0.96,0.79920582232085,197.165580590232,198.082018964536,-0.0144266266315716,1.22770944687924,1.2051248550415,-0.199021217754857,5.91489929051578
0.97,1.00564566532973,197.190543887109,198.082018964536,-0.0552787320593096,1.13631735669823,1.2175966501236,0.0515901260670233,6.55358333381986
0.98,1.21207127990652,197.10197314181,198.082018964536,-0.0375340538691147,1.13867256945942,1.16112267971039,-0.047466344900855,6.19156729357028
0.99,1.41850328112689,197.180112507689,198.082018964536,0.0721536363293978,1.11269357381316,1.18113732337952,-0.718793566173074,6.47330766736506
1,1.62493953781892,197.143256537164,198.082018964536,0.0426592417447709,1.29554388470501,1.25160217285156,-0.53530977563802,5.808234901835
1.01,1.83137734601335,197.10901595678,198.082018964536,0.095138587188848,1.18229600002127,1.20048022270203,-0.851950669749165,6.15784470777483
1.02,2.03781632012064,197.108399510501,198.082018964536,0.0378565769039916,1.03610167801447,1.09396231174469,-0.498660729757115,6.4152831045341
1.03,2.24425019800061,197.159412722763,198.082018964536,-0.0336493602873748,1.22365707696844,1.18902015686035,-0.0630452580147367,5.84811870595291
1.04,2.45068651250326,197.18797123282,198.082018964536,0.0279380351407314,1.14986093534212,1.23385345935822,-0.462153685946527,6.54828616114606
1.05,2.65712538536548,197.20420896544,198.082018964536,0.0382625244108143,1.1911399902474,1.15502214431763,-0.520440394643764,5.84639381382897
1.06,2.8635546143009,197.12291502679,198.082018964536,-0.0809109268052644,1.26163358706769,1.26877880096436,0.192978050051381,6.0964490584752
1.07,3.06999560635747,197.21924339354,198.082018964536,-0.0303428200203084,1.04190987996723,1.1042902469635,-0.122025176588857,6.4272631441688
1.08,3.27643099195195,197.127369904039,198.082018964536,0.0499735497278992,1.22430830938242,1.24548506736755,-0.574332810958803,6.1887421334086
1.09,3.48286643740911,197.146807963428,198.082018964536,0.0432594781694847,1.12485255850718,1.17688405513763,-0.538129031520956,6.35311745171851
1.1,3.68931282692947,197.086550277797,198.082018964536,-0.023820809092908,1.06145613518028,1.1354501247406,-0.150070846077445,6.49327463528054
1.11,3.89574640556141,197.135030125461,198.082018964536,0.0495068756803212,1.17558386933749,1.13439476490021,-0.571412046412213,5.78665584564171
1.12,4.10219274758229,197.20398457771,198.082018964536,0.0451067868875297,1.12298861894776,1.15145099163055,-0.543905519373051,6.18080710870473
1.13,4.30863043213518,197.164265179504,198.082018964536,0.0311208058887714,1.13955066056073,1.17846620082855,-0.483982285078568,6.25561158863668
1.14,4.51506287317667,197.108722124331,198.082018964536,0.034330764152277,1.10787904688015,1.15037906169891,-0.477244692837257,6.26414007579877
1.15,4.72149334291478,197.163054752297,198.082018964536,0.00548163533506242,1.12158099843468,1.15526294708252,-0.317146952332625,6.23485912858968
1.16,4.92792495063596,197.137972124716,198.082018964536,-0.0043173532203367,1.21024735088882,1.18559789657593,-0.238917827273732,5.88402251378468
1.17,5.13435891492629,197.167066174479,198.082018964536,0.0256965169722823,1.17104911549718,1.21026456356049,-0.450776342207369,6.25540577967434
1.18,5.34079622770362,197.092131347112,198.082018964536,0.00973790045577155,1.0944675924727,1.072514295578,-0.337664369424118,5.90974868879397
1.19,5.54723592586436,197.101881835477,198.082018964536,-0.0185526046175778,1.22408406758922,1.21108961105347,-0.162869206816124,5.93391716584817
1.2,5.75367565271843,197.19562432317,198.082018964536,0.0479699564278689,1.11325916883121,1.15759646892548,-0.592946937245729,6.27237059569377
1.21,5.96010934390622,197.075380044624,198.082018964536,0.00505994710013091,1.14809981634808,1.15762507915497,-0.314652537876997,6.0780371083122
1.22,6.16653322412667,197.112968134099,198.082018964536,0.00839119590865955,1.19823362949881,1.20132923126221,-0.326869318750459,6.03253260167129
1.23,0.0897847044154823,197.193133949107,198.082018964536,-0.0321058112905804,1.08212285358078,1.1694028377533,-0.119442364708509,6.55442239438804
1.24,0.29621611932123,197.093082754885,198.082018964536,-0.0311509121196346,1.29049353864644,1.24429404735565,-0.130078274847705,5.74772396093777
1.25,0.502636050526473,197.088441986838,198.082018964536,-0.0296609638828362,1.12559699851373,1.17727386951447,-0.118692111834785,6.34827291483013
1.26,0.709080666786594,197.128528082876,198.082018964536,-0.0507844862517597,1.13853927099608,1.1774605512619,-0.0043285976717925,6.2791587584011
1.27,0.915512105130215,197.09432850426,198.082018964536,0.0403915951482567,1.22575193202986,1.23399174213409,-0.532692604410857,6.07544506475149
1.28,1.12194437882664,197.167702053653,198.082018964536,0.056414509233395,1.07275724966856,1.12589299678802,-0.641265784782214,6.35328881380009
1.29,1.32838045697145,197.111305813584,198.082018964536,0.00967720907582423,1.2001815691859,1.22422540187836,-0.375838169968636,6.18130711951548
1.3,1.53481071261474,197.116703261089,198.082018964536,0.00870278822062281,1.16035901893341,1.22027945518494,-0.355386964287729,6.38657703086684
1.31,1.7412457302042,197.189934156823,198.082018964536,-0.0352707426654885,1.12121351034301,1.14641642570496,-0.0901934408434266,6.20229616866439
1.32,1.94767500660303,197.112293935006,198.082018964536,-0.08122917255208,1.2044303848446,1.17006683349609,0.203897841812985,5.83888438648223
1.33,2.15411194787081,197.179357665718,198.082018964536,0.10267109767245,1.12479986680926,1.2348860502243,-0.924684590835926,6.68941920011106
1.34,2.36054912820305,197.10717060856,198.082018964536,0.0201327993968378,1.15497991526581,1.16811418533325,-0.428436872188102,6.1220822290282
1.35,2.56698224945594,197.157547763533,198.082018964536,-0.0613070540306289,1.24880890239781,1.21188592910767,0.0597560770920462,5.79938278028159
1.36,2.77340806564317,197.202815441563,198.082018964536,-0.0933073817986748,1.11165090567324,1.22110593318939,0.214804349041412,6.7077428298893
1.37,2.97985143524128,197.138039111202,198.082018964536,0.00737189670356503,1.1538386023733,1.11397814750671,-0.37783294115285,5.8031840390746
