t,theta,omega,r,i_d,i_q,i_q_ref,v_d,v_q
0,0,0,222.24458903088,-2.31120831417301e-24,0,0,0,0
0.01,0.0647855191422561,126.882393849597,222.24458903088,0.162777650043617,7.65635450968021,10,-1.06883896392954,17.7423170955857
0.02,0.260921114610878,218.460699444883,222.24458903088,-0.116754146999797,0.00345795502982455,-0.0895393714308739,0.362243800833959,5.43942064308624
0.03,0.492408916413171,221.185562176501,222.24458903088,0.0325589263769454,1.28240426448853,1.32511293888092,-0.529319396175615,6.54414094031995
0.04,0.724037945983578,221.155170373329,222.24458903088,0.0472161110153462,1.21045226059451,1.20520401000977,-0.643293449915351,6.34841530596311
0.05,0.955636851343227,221.300969532026,222.24458903088,0.0675862427433153,1.19424955425479,1.28872275352478,-0.782514709937635,7.04843554688684
0.06,1.18726980262997,221.123795770971,222.24458903088,0.0725251821774495,1.35110111215822,1.36384034156799,-0.821296487441378,6.63331370173897
0.07,1.41889790553645,221.360954055323,222.24458903088,-0.00841207972983582,1.22403731148596,1.2665821313858,-0.352470150463895,6.87305944931374
0.08,1.65053326899873,221.107492760783,222.24458903088,0.0949306607116311,1.23588537796582,1.30132138729095,-0.977857595132687,7.06699281275135
0.09,1.88219757687143,221.331866772986,222.24458903088,-0.0852386591469256,1.01966777640855,1.0920512676239,0.0776798334861823,7.1215871389147
0.1,2.11383686192173,221.20478208437,222.24458903088,0.00964168041835833,1.35513867991664,1.39358603954315,-0.46259096602346,6.94716722313599
0.11,2.34552887061449,221.269721133777,222.24458903088,-0.112922139192872,1.06066982654648,1.03574216365814,0.232492122739571,6.55121208912627
0.12,2.57716754294089,221.281692953467,222.24458903088,0.066287663224653,1.29931470544743,1.29872786998749,-0.836905601414366,6.71915546813189
0.13,2.80885275616584,221.221441717459,222.24458903088,-0.0460871583173617,1.19662869200007,1.17854738235474,-0.153816655491824,6.60336311328311
0.14,3.04049426844421,221.264298194668,222.24458903088,0.056523503187827,1.29502396790597,1.30709648132324,-0.754838935871992,6.80129579435771
0.15,3.27216155376959,221.164101417862,222.24458903088,-0.0392704643362974,1.26051030411985,1.26584374904633,-0.179978707002007,6.77763653608195
0.16,3.50383185321904,221.353061851824,222.24458903088,0.000353125438913637,1.19434380046913,1.21576106548309,-0.422873594340223,6.85334400520633
0.17,3.7354891595977,221.151401545174,222.24458903088,-0.0271925711684786,1.35967555101066,1.34663605690002,-0.246649349345591,6.66795994474458
0.18,3.96715367429832,221.454908516318,222.24458903088,-0.0405815503659268,1.27471629036432,1.26945388317108,-0.178296700162298,6.72052641214987
0.19,4.19880997714046,221.235143998642,222.24458903088,0.0163820938709787,1.27358416155774,1.25369739532471,-0.512984890743895,6.6404035656678
0.2,4.43048696946983,221.339816810622,222.24458903088,-0.0968745330746074,1.13872540111372,1.09155774116516,0.158309892423128,6.46999834637767
0.21,4.66213273606892,221.195655937335,222.24458903088,0.0355517723253277,1.27447034683483,1.29232716560364,-0.618992119378646,6.87585696229464
0.22,4.89380722383475,221.174038925903,222.24458903088,0.0208781162869134,1.16028553848008,1.08513450622559,-0.540864495308618,6.32251992952239
0.23,5.12545930302608,221.240514108036,222.24458903088,0.052480820158158,1.31418237752896,1.35936641693115,-0.71341018660572,7.04908582967785
0.24,5.35714838399808,221.184605078715,222.24458903088,-0.0526597773471769,1.21606840613498,1.24618685245514,-0.0913541427879942,6.94798207018643
0.25,5.58881702493811,221.27518363414,222.24458903088,-0.0144852339506983,1.10538864056059,1.11489570140839,-0.310541188045492,6.8035581328615
0.26,5.82048024305799,221.176142465342,222.24458903088,-0.00964060658112244,1.35256315943455,1.34463906288147,-0.332567607762347,6.72034615586764
0.27,6.0521403161379,221.397949594963,222.24458903088,0.0500998291751285,1.34415967331284,1.31657493114471,-0.698505924562201,6.60700092726863
0.28,0.000617342602444282,221.139269504989,222.24458903088,-0.00484632873163838,1.35172454867924,1.31933629512787,-0.358697197253507,6.59329414989401
0.29,0.232302588565114,221.364164276098,222.24458903088,-0.0220538046092034,1.20215032528905,1.24418652057648,-0.287250778167348,7.01273379842118
0.3,0.463950913036397,221.193242142885,222.24458903088,-0.00544820835565163,1.2803486246568,1.3109484910965,-0.352962403591569,6.96794849214213
0.31,0.695633977325612,221.232195601487,222.24458903088,-0.0907838309392935,0.985438085190842,1.01527559757233,0.156017097649156,6.95239321143096
0.32,0.927282082320756,221.198107511726,222.24458903088,-0.0411718443767276,1.29776085259859,1.3192492723465,-0.13464650130933,6.90653940051639
0.33,1.15898447922818,221.25332775094,222.24458903088,-0.0351557081109861,1.15677779825753,1.0805983543396,-0.186457718067534,6.28008922546652
0.34,1.39061622192506,221.257566605544,222.24458903088,0.0339373186309529,1.29738630933045,1.29997622966766,-0.592717155177197,6.78091485144987
0.35,1.62230694858838,221.141579194862,222.24458903088,-0.010169753439826,1.18918819652403,1.16184234619141,-0.321533265870379,6.58770611637437
0.36,1.85395884977412,221.35761701065,222.24458903088,0.0708075335316104,1.19945844352464,1.25251960754395,-0.799663192291688,7.07770664015815
0.37,2.08562029137869,221.180530379196,222.24458903088,0.0322624008902085,1.4039951849611,1.39287936687469,-0.559915190717827,6.71106385062882
0.38,2.31729791196306,221.369395467989,222.24458903088,0.0437379769816969,1.1174265313139,1.16775596141815,-0.65399269953732,7.05827443257811
0.39,2.5489607371202,221.193043797073,222.24458903088,0.0627089032803294,1.37273586933026,1.42979288101196,-0.751936253607896,7.10538992368217
0.4,2.78064585931284,221.347333690375,222.24458903088,-0.00762167687608128,1.20313884799843,1.13021314144135,-0.336672006648608,6.30436567923483
0.41,3.01231282251989,221.21995521367,222.24458903088,0.0130714529142577,1.28706245629277,1.29934370517731,-0.455063069029732,6.80251123294199
0.42,3.2439852128503,221.27291011093,222.24458903088,-0.0943649081745793,1.13280508548794,1.0979323387146,0.172514055497503,6.53321597705657
0.43,3.47562775986047,221.225019029391,222.24458903088,0.0812270718757715,1.29093901522867,1.32492053508759,-0.875452135008936,6.96243450132817
0.44,3.70730398339928,221.129649997983,222.24458903088,-0.0273093142454369,1.17773616198081,1.20837604999542,-0.236550326034758,6.94823207381497
0.45,3.93895995714101,221.291826990466,222.24458903088,0.0999428630881956,1.16732056233882,1.23008489608765,-1.01513530265301,7.13942395370606
0.46,4.17064840299758,221.153159085037,222.24458903088,-0.0640019525260394,1.22488418199273,1.2711923122406,-0.0257077207692624,7.02376929966739
0.47,4.40230498647819,221.31048611232,222.24458903088,0.0297363619038876,1.17814743892225,1.22521984577179,-0.597712870605828,7.02974836988636
0.48,4.63397176465334,221.168957087263,222.24458903088,0.0128934658612045,1.31701459136245,1.35638833045959,-0.486917290876272,6.99091709961345
0.49,4.86564119573835,221.383804877249,222.24458903088,0.00487613938005521,1.20077325409875,1.1528993844986,-0.469626815483007,6.4681396091323
0.5,5.09730948339047,221.165448326407,222.24458903088,0.0289137261469705,1.41332370657059,1.40680634975433,-0.600679305167559,6.7008056709177
0.51,5.32899457843719,221.38028482371,222.24458903088,-0.0854106828584708,1.18812070637612,1.15928053855896,0.0888170153578666,6.55591058729539
0.52,5.56064893795559,221.136824401591,222.24458903088,0.0211354001264249,1.26239050720118,1.31888103485107,-0.537350908819019,7.06799979187845
0.53,5.79231937770956,221.202182334306,222.24458903088,0.0398637806626987,1.2028755589005,1.17331743240356,-0.657451457792935,6.56362620747874
0.54,6.02396855741191,221.252666440329,222.24458903088,0.0396079299442388,1.28941290651078,1.27632510662079,-0.661649827509863,6.67104544549297
0.55,6.25563423501942,221.177441167518,222.24458903088,0.00163074664118129,1.26874787554496,1.28050935268402,-0.44309032933115,6.8435913528072
0.56,0.204092040177738,221.296604292269,222.24458903088,0.139773687544248,1.27941637407639,1.29790484905243,-1.28629138279063,6.90198176163765
0.57,0.435778681511147,221.159118783496,222.24458903088,-0.0448015508355321,1.34335401850519,1.30834460258484,-0.145544911236097,6.56289672747399
0.58,0.667431849102664,221.395364545694,222.24458903088,-0.0109558398337604,1.28505451843469,1.27547025680542,-0.343856554244253,6.72798584817637
0.59,0.899095883608588,221.169613281889,222.24458903088,0.0290388336935845,1.26680612627519,1.31820356845856,-0.581863615753922,7.10263946004157
0.6,1.13076564547411,221.363056260882,222.24458903088,-0.0661390009955712,1.11221679233232,1.14109170436859,-0.0233997095779092,6.97262835287522
0.61,1.36242586610515,221.155365508233,222.24458903088,0.0546380865707857,1.37452849553211,1.35333323478699,-0.726328618840649,6.66872711820683
0.62,1.59409747969532,221.280933445084,222.24458903088,-0.00979850037006549,1.17084887289481,1.08947992324829,-0.339683891349111,6.31804987145439
0.63,1.82575737642967,221.237331124619,222.24458903088,-0.00478618462490238,1.30820076649592,1.32202339172363,-0.371441961014712,6.8772572967286
0.64,2.05744256813244,221.215641983736,222.24458903088,-0.0423504545395534,1.15111236521783,1.07867538928986,-0.154626599206964,6.35257971711918
0.65,2.28909306891924,221.250015356301,222.24458903088,0.0566902365774169,1.28326194861073,1.27043414115906,-0.730908854776247,6.71718713183237
0.66,2.52078533150012,221.118139637499,222.24458903088,0.0154324240327814,1.20131259972047,1.23460125923157,-0.48517757287335,6.97350729502435
0.67,2.75245321654537,221.239804784435,222.24458903088,0.0954445813169771,1.18410769703104,1.14303362369537,-0.981809309497822,6.50712087839604
0.68,2.98412997608962,221.169694788242,222.24458903088,-0.0222754142544488,1.30929480163885,1.36162078380585,-0.264918717238489,7.06545044233227
0.69,3.21577689507462,221.446057418353,222.24458903088,-0.0385408439360064,1.22049569706687,1.26097500324249,-0.180977786181477,7.02722558197735
0.7,3.44743884127728,221.16237562624,222.24458903088,0.0423368022475851,1.36833773765395,1.33428585529327,-0.661952568674041,6.58436918962652
0.71,3.67911848297466,221.314226474567,222.24458903088,-0.120755610584731,1.14121781643277,1.10247778892517,0.309773716558783,6.54846048646372
0.72,3.9107608430037,221.207848123658,222.24458903088,-0.0180570023901844,1.29238734414659,1.32472360134125,-0.278406324701918,6.99575353908962
0.73,4.14244723581346,221.243567768476,222.24458903088,-0.101655659405625,1.06342807496697,1.03469657897949,0.199617402246278,6.62564127530737
0.74,4.37409082568897,221.2066309989,222.24458903088,0.102878713769328,1.28670359688427,1.34427082538605,-1.0223095735313,7.15933299436715
0.75,4.60577899620904,221.100118146608,222.24458903088,-0.0154212885829118,1.16154875528196,1.16840076446533,-0.328415633051501,6.84621113352071
0.76,4.83743488265037,221.298547247154,222.24458903088,0.0970979462892271,1.28270311617169,1.24981904029846,-1.00806970094461,6.60529584918815
0.77,5.06911551739314,221.183891328957,222.24458903088,-0.0236122022809123,1.23686055959968,1.28320300579071,-0.282589057472941,7.08265677787086
0.78,5.30078882378892,221.330964668089,222.24458903088,0.041991005126144,1.1753209986257,1.20773720741272,-0.705727323652031,6.97614779828966
0.79,5.53248020529436,221.158607693338,222.24458903088,0.0108325933711702,1.24787938435021,1.26126503944397,-0.496056268543033,6.83094846072331
0.8,5.76414848773811,221.378000889013,222.24458903088,0.0141568094175903,1.19703390346181,1.15307641029358,-0.532090342549609,6.49083464836675
0.81,5.99580640892604,221.143189988418,222.24458903088,-0.0444492652042829,1.26268594637359,1.30818283557892,-0.156867697488214,7.03386793548246
0.82,6.22747663135466,221.262506581592,222.24458903088,-0.0506602626011481,1.07116379625911,1.02432107925415,-0.134048524108087,6.49064346167242
0.83,0.175946995227736,221.233253445481,222.24458903088,0.0325873738120835,1.29164283479098,1.31397700309753,-0.62345569753716,6.89658896852241
0.84,0.407645367818134,221.200855293836,222.24458903088,-0.0565577693475453,1.15927990524791,1.099196434021,-0.0769090418688016,6.36910996565329
0.85,0.639297327628011,221.282477017399,222.24458903088,0.0890202839446795,1.16164816602262,1.18944454193115,-0.960188088332471,6.90027027985585
0.86,0.870964375645936,221.130126012303,222.24458903088,-0.0122680483487106,1.20757217035662,1.2642685174942,-0.354742143875524,7.09742479739925
0.87,1.10261349556319,221.30532521384,222.24458903088,0.0434011900839287,1.19983430180056,1.26648819446564,-0.683617682623082,7.17303541089808
0.88,1.33428070979453,221.186318152743,222.24458903088,-0.00895264251404143,1.39625888801253,1.40084087848663,-0.350861906564345,6.81818189390152
0.89,1.56593103543417,221.402993297092,222.24458903088,-0.015430542980258,1.28959362024649,1.29996919631958,-0.313532446461116,6.87534463004237
0.9,1.79760437184637,221.160220995705,222.24458903088,-0.0428094583608606,1.31857517529037,1.35973024368286,-0.133555240110194,7.05096401252135
0.91,2.0292807608601,221.348674581759,222.24458903088,-0.0967744416754247,1.12600472320866,1.10540688037872,0.172858919120013,6.67037655434299
0.92,2.26094935861143,221.15753577362,222.24458903088,-0.0099382140142647,1.42414799549852,1.41954278945923,-0.334104594519869,6.74485323275754
0.93,2.49262201417076,221.23371018904,222.24458903088,-0.0287716704977466,1.09987884013287,1.0521012544632,-0.214218134555074,6.49840906300619
0.94,2.72427000575044,221.24821694654,222.24458903088,-0.00586691078206503,1.30373954914425,1.29537189006805,-0.339572855598733,6.7472628536093
0.95,2.95596971599953,221.189246108638,222.24458903088,-0.0476016183017688,1.18850422565893,1.21270167827606,-0.112334862365485,6.90550676877054
0.96,3.18760814665597,221.245326199598,222.24458903088,0.0811852772826004,1.27767675529048,1.27104032039642,-0.902776142503054,6.74630931366881
0.97,3.41928851803183,221.141722538102,222.24458903088,0.0170237464922976,1.20248628980464,1.19491934776306,-0.512446946750767,6.73868349973654
0.98,3.65094217155922,221.36501181833,222.24458903088,0.081628955075071,1.1945229286063,1.25876796245575,-0.906539204627898,7.17880282680016
0.99,3.88260330133001,221.212600494051,222.24458903088,-0.0414685816687352,1.40963504689573,1.39404654502869,-0.156431796136971,6.71489191212604
1,4.1142912337583,221.291693714314,222.24458903088,-0.0505771143182681,1.15558738845919,1.21153712272644,-0.0950026315284728,7.10666931485753
1.01,4.34597327740714,221.127258532891,222.24458903088,-0.0375946767157355,1.35768905065165,1.32396161556244,-0.162284881870123,6.53765231923547
1.02,4.57764034026351,221.311855384282,222.24458903088,-0.0733100029347944,1.14406612093416,1.10450649261475,0.0241921376437289,6.51067653188658
1.03,4.80928670309203,221.149723507488,222.24458903088,0.0133706723412788,1.28116841824248,1.34375739097595,-0.479513343573649,7.14540186531583
1.04,5.04095634638366,221.21130810614,222.24458903088,-0.101455611365357,1.15398205830078,1.18410193920135,0.198914051909487,6.96353347478493
1.05,5.27260431720989,221.185878629083,222.24458903088,0.0841876992181193,1.25565611161079,1.2768794298172,-0.912379541638957,6.92154567329193
1.06,5.50428524210707,221.179696036534,222.24458903088,-0.0418889637022885,1.21973066058746,1.27769875526428,-0.168414474900008,7.13832562932729
1.07,5.73593066003831,221.374656049652,222.24458903088,0.0640915755177711,1.32439079207132,1.2968784570694,-0.809283431074568,6.64164191789577
1.08,5.96760078453722,221.087508776595,222.24458903088,-0.0378031811578587,1.19203130527282,1.23683655261993,-0.178007915006613,7.086253826885
1.09,6.19925844376541,221.425878178822,222.24458903088,0.0455469107350797,1.23474388658276,1.28828716278076,-0.708694802075679,7.14194592548465
1.1,0.147733135649514,221.147323415624,222.24458903088,0.0523978123208776,1.23661793043915,1.26277482509613,-0.734080273653481,6.99829510721553
1.11,0.379411078624027,221.336787878936,222.24458903088,-0.0317686262654033,1.16392850471149,1.12041795253754,-0.253103456938834,6.56387095290672
1.12,0.611070476118332,221.210412301249,222.24458903088,0.0176663019205648,1.34552591048488,1.3687469959259,-0.508448881520333,6.9672536259263
1.13,0.84275437889929,221.302838172112,222.24458903088,-0.0559903598147861,1.17741938435211,1.18194699287415,-0.0904826287745012,6.83859611060129
1.14,1.07440802329874,221.152107234092,222.24458903088,0.0385451639126277,1.24963139030978,1.26424586772919,-0.647168269585675,6.90101894857277
1.15,1.30607790582004,221.154706048752,222.24458903088,0.0333391614869836,1.16820691991648,1.08431088924408,-0.607061519242188,6.32214513464739
1.16,1.53772477338314,221.216638943406,222.24458903088,0.071201864654727,1.26667541876842,1.25942599773407,-0.835751928369259,6.79289913134219
1.17,1.76940959421626,221.214161533374,222.24458903088,0.0192405834066796,1.29356809904029,1.3039208650589,-0.508276864795317,6.88891687559845
1.18,2.00106352222921,221.331771107788,222.24458903088,0.152036955050397,1.27454369248115,1.26957869529724,-1.33499809958438,6.8034009119947
1.19,2.23272714297682,221.214599155342,222.24458903088,-0.0234419649551712,1.37781533672789,1.39810502529144,-0.260255882463725,6.97452959559311
1.2,2.46439755881842,221.362536774856,222.24458903088,0.00992477563187392,1.11515110618306,1.15706050395966,-0.483725941789205,7.0863496019272
1.21,2.69608241370903,221.177987918829,222.24458903088,0.00726352172913929,1.36793778145918,1.32650697231293,-0.451406719000018,6.55174720355447
1.22,2.92775684714013,221.32974542961,222.24458903088,-0.120061409329648,1.08156907845754,1.07895863056183,0.318334402407723,6.78987952579059
1.23,3.15943429998744,221.166931010741,222.24458903088,0.0545716775159329,1.37964586440104,1.36003291606903,-0.729992528977144,6.64909011553195
1.24,3.39112184038295,221.332107099834,222.24458903088,-0.0433739391518297,1.19758966007079,1.13350927829742,-0.151014151301776,6.3681555747739
1.25,3.62277064321457,221.24666334805,222.24458903088,-0.00918534121435244,1.31378588028687,1.33811771869659,-0.339574058564967,6.90853837427754
1.26,3.85445603360503,221.198750194712,222.24458903088,-0.069506171950501,1.18325757107576,1.14614605903625,0.0211543911918199,6.53293968669795
1.27,4.08610037280273,221.248519191103,222.24458903088,0.0776080936660071,1.28322531850345,1.29890394210815,-0.8517112869176,6.86185301636816
1.28,4.31776709409825,221.107544223536,222.24458903088,0.0403797645885436,1.20210721563291,1.23296797275543,-0.631757566890422,6.97483384442273
1.29,4.54943957794984,221.23879574142,222.24458903088,0.0628282282560024,1.19798302858515,1.15996360778809,-0.780303968238314,6.53381960633717
1.3,4.78112388628596,221.147879429277,222.24458903088,0.0260783155169865,1.24946560684369,1.29095125198364,-0.549384872560184,6.99584567366804
1.31,5.01277747790076,221.368140950943,222.24458903088,-0.0849586618632538,1.20217004206523,1.26329362392426,0.087023780832291,7.13403264551681
1.32,5.24445542042815,221.157332444667,222.24458903088,0.100308356040787,1.31614840625562,1.35543870925903,-1.0191388621307,6.97926863635174
1.33,5.47612997934998,221.237623983055,222.24458903088,-0.107623408663772,1.0658940026858,1.06861841678619,0.212184943435269,6.76319894395282
1.34,5.70777149058481,221.128322624744,222.24458903088,0.0279736530062138,1.26022575656582,1.32024478912354,-0.596812533431292,7.13057473948806
1.35,5.93945398696718,221.244927711061,222.24458903088,-0.128941069358203,1.16759613321977,1.15530490875244,0.345326793444331,6.6916433623767
1.36,6.17110350331798,221.238736109297,222.24458903088,0.0982235861550276,1.2678820653231,1.26915240287781,-1.01576909075825,6.77965658071535
1.37,0.119598663807604,221.141755677759,222.24458903088,-0.0308892930550796,1.20673590333889,1.25992226600647,-0.222100410285316,7.09198092971345
1.38,0.351235938708175,221.310751440106,222.24458903088,-0.006905074367204,1.35704459481534,1.35414516925812,-0.371596853708229,6.78223447831584
