t,theta,omega,r,i_d,i_q,i_q_ref,v_d,v_q
0,0,0,298.701562675532,-8.82825108749769e-24,0,0,0,0
0.01,0.0631049643445789,124.109838531267,298.701562675532,0.187065129659468,7.48793398835749,10,-1.23567581942293,18.9200548342815
0.02,0.258940962033161,247.512804926129,298.701562675532,0.20186584039102,7.69213540604301,10,-1.64152285597623,21.1237404632929
0.03,0.558837883854486,296.865779353507,298.701562675532,-0.104898823638961,0.862350154171431,0.661597549915314,-0.0940701456013712,7.3253620908284
0.04,0.869992908128217,297.13065346667,298.701562675532,-0.00154830395942912,1.6272321923618,1.69852828979492,-0.720199205202673,9.19071941608143
0.05,1.18122525448521,297.173584708355,298.701562675532,-0.0671773413342697,1.72316753984225,1.76527059078217,-0.330608261494732,9.12752708378846
0.06,1.49245450926578,297.151726001701,298.701562675532,-0.0610047788322547,1.86094638509604,1.8918125629425,-0.374249225623659,9.1650091661402
0.07,1.80371232950876,297.172182665703,298.701562675532,0.00943267710113263,1.87766380796427,1.82170176506042,-0.789093791598026,8.70828483353853
0.08,2.11497816693797,297.167137443214,298.701562675532,0.0251033677235071,1.9400216373813,1.93069648742676,-0.886121809664072,9.04198102846265
0.09,2.42625004857813,297.305341797872,298.701562675532,0.043388180318196,1.96148526009087,1.95288228988647,-1.0137465168228,9.08413116885336
0.1,2.73753655198907,297.239548765833,298.701562675532,0.0329183967840584,1.80325098284598,1.85711693763733,-0.945956195953104,9.48223151675621
0.11,3.04881115004245,297.250362210875,298.701562675532,0.0664566477815589,1.61770902627665,1.71675026416779,-1.15098257583315,9.79119472269069
0.12,3.36009018015439,297.336133695036,298.701562675532,0.0763721816060479,1.64047199170107,1.75659584999084,-1.21002182134033,9.92366883554806
0.13,3.67139928156858,297.41567404555,298.701562675532,-0.00693242071505007,1.59224004199386,1.65613317489624,-0.726280928738435,9.60206725703207
0.14,3.98268843679204,297.347209014056,298.701562675532,0.00495559761568332,1.61792617925009,1.62610697746277,-0.802825777040541,9.28050836192966
0.15,4.29398754471447,297.303448983863,298.701562675532,-0.035290085980735,1.71734178756128,1.66209077835083,-0.549202897554776,8.89930489614527
0.16,4.60529750259645,297.196474455742,298.701562675532,-0.0261028894675294,1.61406474351086,1.59805428981781,-0.590003058314279,9.11579302855827
0.17,4.91657620399143,297.198029159719,298.701562675532,-0.0255811758951646,1.71789883756887,1.69914495944977,-0.586348640999973,9.12399190870935
0.18,5.22786166986883,297.239016319455,298.701562675532,-0.0170726534674633,1.89907362839947,1.8243316411972,-0.635588968185703,8.79510689822229
0.19,5.53915162570853,297.269787362433,298.701562675532,0.0200248858041181,1.92629788186222,1.83443546295166,-0.876641145347397,8.69565910817565
0.2,5.85044636186414,297.253241302784,298.701562675532,0.0673656847636293,1.85339853017381,1.86215388774872,-1.14180089767222,9.29540315189717
0.21,6.16173982857505,297.326708157318,298.701562675532,0.111414060341738,1.8796559013477,1.93971300125122,-1.43932080129373,9.5994296043007
0.22,0.189851048917128,297.281997673455,298.701562675532,0.0949935191359013,1.79561280404322,1.83209145069122,-1.34184604274555,9.45765799744013
0.23,0.501143296365872,297.290067602857,298.701562675532,0.0880881778596805,1.78790035053886,1.82288658618927,-1.31355795642103,9.44871725260226
0.24,0.812452748428031,297.288806968974,298.701562675532,0.0446554670482163,1.57214892701257,1.70919036865234,-1.06905831207818,10.0503475759373
0.25,1.12373576496696,297.367286513636,298.701562675532,0.056563932705067,1.6248110875825,1.70106959342957,-1.15559181475888,9.71495322535757
0.26,1.43502990924384,297.405674317108,298.701562675532,-0.0864987381121802,1.60766906653612,1.70575332641602,-0.286820184683243,9.85383181494104
0.27,1.74631261708072,297.353300358475,298.701562675532,-0.101785467225424,1.72083686782633,1.74498927593231,-0.208049080490746,9.43347756228033
0.28,2.05761333643825,297.217321997038,298.701562675532,-0.0832516178793969,1.57845615012301,1.59242749214172,-0.294957930851613,9.36887221628787
0.29,2.36890387388454,297.192908697942,298.701562675532,-0.0656426418314809,1.71464319994307,1.61847472190857,-0.382136680245169,8.71168934544061
0.3,2.6801970696114,297.196746742267,298.701562675532,0.0132070394172248,1.82580912629821,1.72363030910492,-0.846409015475778,8.67192702657655
0.31,2.99148602421351,297.216071858569,298.701562675532,-0.0244574029469258,1.9029122512325,1.83169901371002,-0.613308969546249,8.85559812449046
0.32,3.30278295835073,297.236133025155,298.701562675532,0.0597209594113199,1.9304279489748,1.85623323917389,-1.12885603523607,8.83386038802406
0.33,3.61407383222975,297.244312231943,298.701562675532,0.000978250927740565,1.9159396566684,1.85506808757782,-0.786453187875865,8.91997052392447
0.34,3.92538279390639,297.284204836376,298.701562675532,-0.0298343149542161,1.82587813214722,1.81049835681915,-0.590069454776011,9.17359202294245
0.35,4.23667575511322,297.362109716219,298.701562675532,-0.00234703531069824,1.8700652110048,1.85474753379822,-0.758618934611031,9.18235224481074
0.36,4.54797497877962,297.360524582697,298.701562675532,-0.0107764387208673,1.77698775450434,1.80017340183258,-0.702228342703163,9.41116252394062
0.37,4.8592791057847,297.333990561064,298.701562675532,0.0415633917618495,1.67901982449701,1.72367131710052,-1.03040376448062,9.53637223578959
0.38,5.17059287488561,297.398745333305,298.701562675532,-0.0145161166904536,1.65493159935221,1.69834220409393,-0.691413278040794,9.50819202909697
0.39,5.48189117847044,297.364881584857,298.701562675532,0.0294660421031915,1.64885138527302,1.67734909057617,-0.952827646650679,9.42613040986615
0.4,5.79318914827392,297.230976416888,298.701562675532,-0.027973918732877,1.59064990462769,1.58932960033417,-0.601813284199258,9.24338292120723
0.41,6.10447655093714,297.193483232793,298.701562675532,0.0254118662895908,1.63421645220743,1.61530911922455,-0.91790833569726,9.14692779666128
0.42,0.132580883560863,297.172595403481,298.701562675532,-0.0458889148211833,1.79851758351671,1.70068204402924,-0.495950577611833,8.67951993068765
0.43,0.443869723853634,297.155893992873,298.701562675532,0.00279154172676704,1.8755504039824,1.81690323352814,-0.794258757001577,8.91515753596291
0.44,0.755159799817552,297.123891545171,298.701562675532,0.0546615888952605,1.96214742163705,1.90934455394745,-1.09658473157121,8.95457667158342
0.45,1.06646948141873,297.209300725738,298.701562675532,-0.0334410081031705,1.89469037647192,1.83652341365814,-0.562082161131295,8.89964817478814
0.46,1.37774806281867,297.300974154723,298.701562675532,0.115572078113256,1.93891629089329,1.9332103729248,-1.4651331258987,9.23556406235599
0.47,1.68904152333294,297.357668158524,298.701562675532,0.0719866755432431,1.84612950020952,1.9007226228714,-1.20905006759888,9.60324182427412
0.48,2.00034987457525,297.341930325847,298.701562675532,-0.0227645880917232,1.66175955618496,1.7035368680954,-0.638114333339925,9.50839359840698
0.49,2.31164448188755,297.3375150246,298.701562675532,0.107034773045,1.64148817312553,1.72032511234283,-1.43920659990082,9.739113826122
0.5,2.62293847579381,297.385966216946,298.701562675532,-0.0114728993289013,1.66191569289707,1.72293126583099,-0.713894239057542,9.64001993006386
0.51,2.93424387558507,297.42984383443,298.701562675532,-0.13702592002915,1.61058587367121,1.70862281322479,0.0717848010860568,9.85986060569917
0.52,3.24554361166464,297.328171306982,298.701562675532,-0.071739181580612,1.68614005119208,1.70151805877686,-0.334430756409465,9.35713128143457
0.53,3.55684599479537,297.268081021544,298.701562675532,-0.0156027052426458,1.75245716012846,1.69547486305237,-0.670827321541536,8.90932236816485
0.54,3.86814198062165,297.224472359347,298.701562675532,0.00486716987110791,1.76222366578681,1.68631529808044,-0.807541289758047,8.80051038915643
0.55,4.17942848259915,297.160276608378,298.701562675532,-0.0385967340484705,1.85882201303842,1.82042217254639,-0.542565920697387,9.0402888570559
0.56,4.4907294327037,297.164233058966,298.701562675532,0.0590582054438049,1.88270008754118,1.81726968288422,-1.12530516788074,8.86196070390984
0.57,4.80203250334024,297.196851813632,298.701562675532,0.0141276779271676,1.87467916433104,1.81666898727417,-0.841258883988454,8.89203126077044
0.58,5.11332757736742,297.226833509965,298.701562675532,-0.00773009630653743,1.92104965518771,1.88155901432037,-0.713745644360204,8.99957140395286
0.59,5.42462255251902,297.288222455694,298.701562675532,-0.00356683936370439,1.87264513482024,1.86817646026611,-0.741411353299653,9.20886952167591
0.6,5.73592470239629,297.316295424441,298.701562675532,0.0629189840376061,1.72892776959109,1.82868790626526,-1.14043902659714,9.82600187421468
0.61,6.04721959058713,297.325475815872,298.701562675532,0.124594139221245,1.72537143064857,1.74141371250153,-1.51974578571419,9.32946869960809
0.62,0.0753332140946092,297.403333652902,298.701562675532,0.0747217716947803,1.75016882259047,1.78785347938538,-1.24595938262971,9.46385167563847
0.63,0.38663353562097,297.419170702906,298.701562675532,0.00772620187372697,1.62556376057494,1.69215571880341,-0.857734047854924,9.63994425115352
0.64,0.697926199285106,297.3722641271,298.701562675532,-0.0606675459462276,1.72087232697318,1.70004630088806,-0.439322061124175,9.13030155653307
0.65,1.00921768895569,297.220983226168,298.701562675532,0.0188680006998437,1.60412711472656,1.57670700550079,-0.924198268612931,9.09991804388461
0.66,1.32049698540335,297.208192080829,298.701562675532,-0.0327232815353112,1.79104206455069,1.71004629135132,-0.592552526596962,8.79867103135649
0.67,1.63179524305602,297.196489561626,298.701562675532,-0.0420286774382774,1.78130762234857,1.71034896373749,-0.517984486800557,8.8559655967744
0.68,1.94308409651401,297.144014964255,298.701562675532,0.0419384659244291,1.94263766833582,1.84989821910858,-1.02168650648525,8.72176236203847
0.69,2.25438352267338,297.214054897521,298.701562675532,0.0580139687988777,1.79494076293947,1.78662979602814,-1.1167045598977,9.22329351986894
0.7,2.56567856359691,297.248373757629,298.701562675532,0.0743629966864836,1.827749975613,1.83532786369324,-1.22714855140748,9.31624644258102
0.71,2.87697599150264,297.279068170836,298.701562675532,0.0830632888692637,1.78503920332386,1.78919982910156,-1.2765976771327,9.28938464143521
0.72,3.18826647301929,297.270381674734,298.701562675532,0.061360481289623,1.81671803741576,1.86682677268982,-1.16204885390313,9.57090438727896
0.73,3.49956731259139,297.343281922114,298.701562675532,-0.0150605988382023,1.72248030389133,1.77462947368622,-0.696017991503385,9.57976184189414
0.74,3.81086827345081,297.379634924345,298.701562675532,0.00211279210082711,1.69106466487027,1.75219106674194,-0.809413833800987,9.62907401566685
0.75,4.12216699633937,297.383927432878,298.701562675532,-0.011374565929583,1.65496206806305,1.71830296516418,-0.727155593163266,9.64446634259943
0.76,4.4334710238169,297.38575952828,298.701562675532,-0.0590302421993237,1.60627963045756,1.6597090959549,-0.45487712215208,9.57763595648191
0.77,4.74475759587942,297.28019498697,298.701562675532,-0.0807984692547158,1.71318413240772,1.70077407360077,-0.320147843311569,9.19424698971414
0.78,5.05605291844574,297.208962358297,298.701562675532,-0.0417382377716673,1.67508826375596,1.66860246658325,-0.554116330819542,9.22998851823312
0.79,5.36734828365699,297.219545858606,298.701562675532,-0.061688779942198,1.70191469891287,1.66992139816284,-0.421516344923029,9.07155034957339
0.8,5.67863805840156,297.176083496462,298.701562675532,0.000132561956729949,1.82609819735589,1.72214233875275,-0.782878275558905,8.64808117510279
0.81,5.98991910701578,297.201855569891,298.701562675532,-0.0670954419116164,1.90011808505309,1.88883662223816,-0.35886026302652,9.21901969130037
0.82,0.0180206001471781,297.163328173655,298.701562675532,0.0101765498201759,1.90987760244444,1.92342019081116,-0.856961355206641,9.36860736779109
0.83,0.329326886715144,297.256234013481,298.701562675532,-0.0239259074245118,1.86231388007406,1.86392307281494,-0.663249039888377,9.27357212806159
0.84,0.640614932175218,297.243953926733,298.701562675532,-0.0035172047777286,1.80168385004889,1.8122171163559,-0.762989583831833,9.33664380940424
0.85,0.951919811555602,297.336636294122,298.701562675532,0.0151887091225109,1.72651671474506,1.76855063438416,-0.872782327330193,9.51331667955626
0.86,1.26321535348242,297.36975979041,298.701562675532,0.101419140510235,1.73503368718664,1.72910737991333,-1.39575958390736,9.22955421845533
0.87,1.5745192704173,297.406414912555,298.701562675532,-0.00972068493355421,1.65721263275801,1.72505152225494,-0.749250482564837,9.66366916919474
0.88,1.88581480354109,297.255749412669,298.701562675532,-0.0425370717897184,1.58234499701753,1.66365730762482,-0.538958910927959,9.75063954059465
0.89,2.19712066622971,297.328387572835,298.701562675532,0.00399798344803975,1.64166333477629,1.65601074695587,-0.797809226821541,9.34057388231719
0.9,2.50841743517004,297.209537849688,298.701562675532,-0.0494724749153863,1.64185673424032,1.6124119758606,-0.473845149704571,9.07227749888373
0.91,2.8197138687572,297.218707800933,298.701562675532,-0.0483086851189497,1.75529466400389,1.68529641628265,-0.494156788623046,8.83150432176941
0.92,3.13100398294116,297.238309068786,298.701562675532,0.0229288470282879,1.85011100010625,1.75438690185547,-0.919974327853486,8.68652808832656
0.93,3.44230551902321,297.201831059929,298.701562675532,0.0251192634629032,1.7947144119711,1.77544331550598,-0.946249351687313,9.12726742798276
0.94,3.75359388242577,297.192697875779,298.701562675532,0.0475491856169323,1.92089232676847,1.86226153373718,-1.06889718054008,8.90127901413005
0.95,4.06489022480351,297.217073114853,298.701562675532,0.0820711008558088,1.81479012171386,1.83072209358215,-1.26324739171486,9.34222119970327
0.96,4.37618404096901,297.213784737485,298.701562675532,0.0671179616630422,1.76823739286,1.79114329814911,-1.16933578293742,9.38680886586457
0.97,4.68748204429448,297.327590061543,298.701562675532,-0.000539836947212269,1.7468743127346,1.81802606582642,-0.764968018654709,9.67726514437203
0.98,4.99877688247667,297.298352841217,298.701562675532,0.0103520304863188,1.60168151940175,1.6840728521347,-0.84392906955335,9.75204460689882
0.99,5.31007238670517,297.330300609404,298.701562675532,0.0280473080340691,1.63280866991095,1.73471307754517,-0.942658264397792,9.88002095613846
1,5.6213839909765,297.437437995071,298.701562675532,-0.0807664476871609,1.54752723230727,1.65116500854492,-0.287523368827605,9.87893776368337
1.01,5.93266896053946,297.347404479105,298.701562675532,-0.0211559982426356,1.73967266994306,1.74733245372772,-0.654449225437001,9.32456508741913
1.02,6.24396740326443,297.279006623398,298.701562675532,-0.147422378628232,1.61935375330647,1.63325226306915,0.0938604087160348,9.36001408668324
1.03,0.272072355153693,297.276620194663,298.701562675532,-0.0893896641602231,1.80482123219044,1.72185444831848,-0.233145439965137,8.78447179298348
1.04,0.583373483876571,297.258907644026,298.701562675532,0.0214343603409461,1.87380048724602,1.77421092987061,-0.898557902987428,8.67261387828861
1.05,0.894680499966782,297.198944272265,298.701562675532,-0.0129094861960016,1.8965726449748,1.85938048362732,-0.703186379225782,9.02608931660914
1.06,1.20597513999836,297.146919613513,298.701562675532,0.00586824683176046,1.89987127348094,1.85690534114838,-0.815374320158316,8.98912693923694
1.07,1.51727082388226,297.224351022906,298.701562675532,-0.0130821356187401,1.95062525671907,1.97010040283203,-0.707953925165558,9.36392571190131
1.08,1.82856898434266,297.24163337001,298.701562675532,-0.0288939046832682,1.84028197500673,1.79859173297882,-0.60771131051958,8.99314088155821
1.09,2.13986636281265,297.328669135795,298.701562675532,0.0549890186306028,1.83929735300713,1.86330103874207,-1.1172048635061,9.38613975741307
1.1,2.45115704668693,297.296204520003,298.701562675532,0.0709174051414178,1.65490961832743,1.78496980667114,-1.20814545215944,10.0339179364843
1.11,2.76244959629945,297.344563924097,298.701562675532,0.109085828726721,1.68683552960336,1.71472322940826,-1.42632849713364,9.43442265760165
1.12,3.07375246315758,297.311427757413,298.701562675532,-0.0458862106299273,1.69373600705158,1.73029184341431,-0.506117361797062,9.48772964660562
1.13,3.38505575367479,297.343925167051,298.701562675532,-0.113533614212424,1.69086073036604,1.747802734375,-0.108706114050409,9.61008685412362
1.14,3.69635756088663,297.317099750536,298.701562675532,0.00301267773227465,1.76215931632652,1.74435663223267,-0.796371444377376,9.15873810256136
1.15,4.00766321060135,297.192394714514,298.701562675532,-0.0705782610380025,1.69073055661085,1.61918807029724,-0.364040409515733,8.82189373700088
1.16,4.31895888703806,297.148470949914,298.701562675532,0.0419830974952452,1.63099184884152,1.5938138961792,-1.05460976737848,9.02811080990827
1.17,4.63024149506067,297.145878972698,298.701562675532,0.00127021287305251,1.86229583026309,1.80111241340637,-0.809801216288326,8.90000602425375
1.18,4.94153405250633,297.163271621121,298.701562675532,0.00484388750580634,1.89994836547924,1.85879850387573,-0.815201807872502,9.01946332789477
1.19,5.25284075228535,297.243027858384,298.701562675532,-0.0211981307478788,1.90185327762037,1.83563733100891,-0.654457473352668,8.85208128419417
1.2,5.56413557405513,297.237189160277,298.701562675532,0.122850307604495,1.81063100701005,1.82776498794556,-1.52131446882674,9.34639487189827
1.21,5.87542844422298,297.30533110298,298.701562675532,0.12050642140345,1.78695932977876,1.78832161426544,-1.5102278269901,9.26010921866578
1.22,6.18672786242978,297.28106558412,298.701562675532,-0.0105303694862747,1.64768216402138,1.71737492084503,-0.722457188252692,9.66978955095877
1.23,0.214840304740896,297.394467059313,298.701562675532,-0.0112594458654616,1.67820872706681,1.72752380371094,-0.710164291689205,9.55155637091186
1.24,0.526144077732958,297.421613318409,298.701562675532,0.0198398703215963,1.69704774192484,1.78286111354828,-0.923939284608327,9.77020406751013
1.25,0.837444629858844,297.422766592965,298.701562675532,-0.136154925832024,1.57451457508595,1.67521715164185,-0.00167622800627354,9.86210495910295
1.26,1.14873531141488,297.379017391008,298.701562675532,-0.0573101771636408,1.69840623499406,1.74602389335632,-0.473196406446004,9.55835209417474
1.27,1.46003643514135,297.262595552079,298.701562675532,-0.0809758025060685,1.67282570219505,1.67914211750031,-0.326328539477082,9.29794523193569
1.28,1.77133398048942,297.215854579652,298.701562675532,-0.0905315515980311,1.63505782751864,1.63317215442657,-0.267918264202807,9.24591510829159
1.29,2.08261111287819,297.14632750325,298.701562675532,-0.0572843762964119,1.93023283969475,1.8661926984787,-0.43542845206855,8.89265537574125
1.3,2.39390894901909,297.148871363744,298.701562675532,0.044783846371525,1.98563205446574,1.97432911396027,-1.04368714986043,9.19425494511866
1.31,2.70520266677632,297.23477534646,298.701562675532,-0.000249040283197,1.88524076603675,1.81896734237671,-0.784821531831796,8.86587387474395
1.32,3.01649144280783,297.223015375594,298.701562675532,0.0609808145426741,1.82643668061519,1.84149158000946,-1.17012744371383,9.36067030422666
1.33,3.32778782521308,297.266276264623,298.701562675532,0.0162282395904016,1.85845076498224,1.84037148952484,-0.887436029531972,9.16382077111449
1.34,3.63908477392711,297.319982453496,298.701562675532,-0.00590038545474747,1.84741469209704,1.8305344581604,-0.755747757909766,9.17147875654756
1.35,3.95038588260308,297.273066152758,298.701562675532,0.0741199119030738,1.62859685596787,1.75371623039246,-1.2475500804072,10.0234869789632
1.36,4.26168289405645,297.303673049837,298.701562675532,0.0578874673036093,1.67339541768886,1.75864827632904,-1.15147433017594,9.79360811231724
1.37,4.57299585141147,297.429956617405,298.701562675532,-0.00526753134437019,1.6217522330459,1.67354214191437,-0.766513280994148,9.57871454251922
