t,theta,omega,r,i_d,i_q,i_q_ref,v_d,v_q
0,0,0,135.072783207841,-9.72251844411788e-25,0,0,0,0
0.01,0.0590537944554549,115.983632603225,135.072783207841,0.142820929828813,7.46561534857098,10,-0.94506776553085,19.0712400900278
0.02,0.198756400151054,134.556167554355,135.072783207841,0.0920861699345766,0.90980114847252,0.819688677787781,-0.701667389966465,3.66212231531041
0.03,0.339551239934044,134.491689953455,135.072783207841,0.0477798910781077,0.858517829869194,0.797132194042206,-0.423424624660583,3.72851669568653
0.04,0.480328598121235,134.417287194867,135.072783207841,0.04270863190951,0.837320895941814,0.796232879161835,-0.390354193760153,3.77374403037067
0.05,0.621092759750308,134.402363909197,135.072783207841,-0.00848149670359938,0.839458927230621,0.796214401721954,-0.0794919137439075,3.71238839413706
0.06,0.76186146244404,134.416595047976,135.072783207841,-0.025182942783385,0.862114873019177,0.837974429130554,0.0281413252695349,3.76798207913633
0.07,0.902628142118493,134.421108015577,135.072783207841,0.0273850184227527,0.924810038709437,0.846853733062744,-0.274579085777927,3.39784048985219
0.08,1.04338014060951,134.398043625409,135.072783207841,-0.00249984712678514,0.883707296261422,0.819690525531769,-0.104300390811086,3.45573683315207
0.09,1.18413243364281,134.401317007942,135.072783207841,-0.0829050846136588,0.891236412868786,0.811576187610626,0.389075360028265,3.33248586381976
0.1,1.32487792913725,134.357833991476,135.072783207841,-0.0792414108721178,0.891200718926885,0.883247554302216,0.376431234948683,3.75030312651845
0.11,1.46562732936331,134.418332645886,135.072783207841,0.00720283481646028,0.849783650722928,0.859370291233063,-0.115677697963747,3.83888230174605
0.12,1.60636903389785,134.392679516326,135.072783207841,-0.0448780180737599,0.796464824159261,0.789096236228943,0.182201900922481,3.72732237378957
0.13,1.7471098873082,134.370590194296,135.072783207841,-0.0925762972411502,0.822992607997606,0.783466041088104,0.478125152371324,3.5240436803372
0.14,1.88784380430867,134.359689093462,135.072783207841,-0.087965274493931,0.739715938874361,0.769163966178894,0.449392099488123,3.93337551312279
0.15,2.02858281012014,134.401013782078,135.072783207841,-0.00165537530588054,0.761400777863526,0.741029918193817,-0.0891779746202158,3.62821883018467
0.16,2.16932010865599,134.459343654835,135.072783207841,0.0723576754928356,0.77965115272305,0.80783474445343,-0.536615846178029,3.90741865910137
0.17,2.31004846395331,134.454203404531,135.072783207841,0.0145975608130385,0.854021649970484,0.846105933189392,-0.184976992769094,3.69102703603987
0.18,2.45078270003361,134.419542024193,135.072783207841,0.112968157989643,0.839532927908386,0.873774349689484,-0.770129448468545,3.93628817929273
0.19,2.59152611586045,134.402891233976,135.072783207841,0.0254904935693413,0.842086944045396,0.83996057510376,-0.24213447540562,3.69964812444599
0.2,2.7322661000557,134.39801087126,135.072783207841,0.0403120036234247,0.827449936295508,0.815462291240692,-0.317950487897038,3.63665498483732
0.21,2.8729914721662,134.380592130458,135.072783207841,0.00252527917078296,0.846653274583766,0.85293185710907,-0.0878297257458578,3.76304916722378
0.22,3.01372438047843,134.440156906219,135.072783207841,0.0478578478163862,0.94004197102675,0.886392891407013,-0.357484666621416,3.4060597599865
0.23,3.15444702489471,134.376702983862,135.072783207841,0.00364871411555212,0.94106732462396,0.94824081659317,-0.0983674073866637,3.7961857691958
0.24,3.29518700152384,134.355624416537,135.072783207841,0.0802617880505641,0.861030008456491,0.788029968738556,-0.569916888280146,3.30672628253234
0.25,3.43592421775479,134.406024137906,135.072783207841,-0.00970668829889265,0.921284869675534,0.864037334918976,-0.0197342111473269,3.40596339414885
0.26,3.57666116530868,134.392439289904,135.072783207841,0.00403858983143722,0.901352027110584,0.816188335418701,-0.0960467409576782,3.23810423851698
0.27,3.71739863993642,134.376616908838,135.072783207841,-0.0226745884195687,0.85425369514256,0.798735916614532,0.0602996069061997,3.41785791567074
0.28,3.85813863384948,134.405472162571,135.072783207841,-0.0230470489989093,0.870885097766647,0.830266058444977,0.0703831527007593,3.50391747773432
0.29,3.99888063482266,134.377352038267,135.072783207841,-0.062594269361632,0.791528627735665,0.796847522258759,0.299331676834665,3.76935919115633
0.3,4.1396242293656,134.403979387324,135.072783207841,-0.0799356199382161,0.83814797327019,0.810333847999573,0.407254259841769,3.55901282696308
0.31,4.28035286322682,134.449847419677,135.072783207841,-0.0491373253029029,0.803753433219759,0.820342421531677,0.205177283558273,3.82888064291837
0.32,4.42109139830525,134.462322512891,135.072783207841,-0.0696208546625253,0.768102881440077,0.799197733402252,0.339596596373215,3.90276786473109
0.33,4.56181774956545,134.492729763219,135.072783207841,-0.0656939469855241,0.828501615707986,0.888754963874817,0.312995940503507,4.08253982451118
0.34,4.70254903444419,134.408190736804,135.072783207841,0.0577742260023492,0.815620527580607,0.870241224765778,-0.427517422316497,4.04752567953384
0.35,4.84328655579619,134.40297336101,135.072783207841,0.0345672528731059,0.758959925877392,0.816475331783295,-0.290784484701514,4.0546010033305
0.36,4.98402584751829,134.402847694911,135.072783207841,0.0324354556738008,0.811865090055781,0.807694852352142,-0.253532698432804,3.67614559025499
0.37,5.1247578129955,134.404285080729,135.072783207841,0.0426671561369853,0.85700094061211,0.883950650691986,-0.317046791362615,3.8645265318516
0.38,5.2654860942433,134.405802771872,135.072783207841,-0.013877318912923,0.849112029908055,0.824708521366119,0.011999104265571,3.56357411976609
0.39,5.4062250800406,134.358233004164,135.072783207841,0.0225309435161692,0.832808311112674,0.835360646247864,-0.20054557747991,3.72167069207691
0.4,5.54695937014218,134.414983465259,135.072783207841,-0.0057326436583568,0.939168845754271,0.893087089061737,-0.0209633303505035,3.43148773302234
0.41,5.68768983101046,134.313046345701,135.072783207841,0.0208593983508999,0.888148184155508,0.851708054542542,-0.159761250261071,3.5026125258507
0.42,5.82841824422672,134.363908159879,135.072783207841,-0.00951828352018295,0.900123688355929,0.845908582210541,0.0151547859461791,3.40786557750189
0.43,5.96915776311983,134.358196011516,135.072783207841,-0.0155340591652507,0.810540460663133,0.799798369407654,0.039178678997203,3.66166059294931
0.44,6.10988352598471,134.466899478599,135.072783207841,0.0274460595096968,0.948915216781644,0.917381107807159,-0.22231647791488,3.55433895070858
0.45,6.25061770251438,134.455635457389,135.072783207841,0.0101151962143971,0.933953572908064,0.875189065933228,-0.124252391854813,3.38938700235556
0.46,0.108176844460941,134.362235850942,135.072783207841,-0.0582907261363482,0.87600538106449,0.853378117084503,0.268074920338229,3.59199857010528
0.47,0.24890179408512,134.371787543439,135.072783207841,-0.070583975367793,0.786702613125879,0.808114886283875,0.343334351885504,3.87172638203151
0.48,0.389639524549794,134.398690793532,135.072783207841,-0.0966609226654882,0.764797458556107,0.806301236152649,0.493059781867036,3.98521003203531
0.49,0.53037954535908,134.430465520788,135.072783207841,-0.0267604732722478,0.779258052838879,0.828188419342041,0.075958697428228,4.01713186291958
0.5,0.671112604603878,134.462462247353,135.072783207841,0.00745598581761171,0.72611826730388,0.796915352344513,-0.13227225149203,4.14634802889806
0.51,0.811843467802486,134.39457615301,135.072783207841,0.029619818443915,0.808913598754633,0.809351563453674,-0.269299765928815,3.72050125530061
0.52,0.95257803505273,134.436008759127,135.072783207841,0.0890560354256185,0.822891885828321,0.813646614551544,-0.607585461953649,3.65845463856755
0.53,1.09332118277478,134.394884808091,135.072783207841,0.0215959624799919,0.811357713481285,0.805159687995911,-0.197720203607652,3.66486964523587
0.54,1.23405319602767,134.36364647849,135.072783207841,0.00277747359070446,0.915564029260538,0.876108467578888,-0.0863052474765866,3.46569437174558
0.55,1.37477920677431,134.434476647703,135.072783207841,0.0341364954159321,0.910465569777955,0.863082468509674,-0.277869789714814,3.4335543195279
0.56,1.51551772226074,134.402214527279,135.072783207841,-0.0111609377523949,0.859394289349148,0.842897534370422,0.00528251615121371,3.61526490327734
0.57,1.65624445969047,134.372613475073,135.072783207841,-0.00510630038128262,0.921705362179897,0.884646534919739,-0.0438618125608205,3.5113848216047
0.58,1.79698987837324,134.388568357301,135.072783207841,0.0343471561073812,0.846047984445863,0.836481273174286,-0.279748239937351,3.66946453329366
0.59,1.93772834343505,134.414497068351,135.072783207841,-0.0754763101804002,0.91783829481531,0.8495272397995,0.384428780974098,3.31842706935066
0.6,2.07847071997737,134.366538106776,135.072783207841,-0.0441411288593028,0.768922351796682,0.743052661418915,0.208791620478341,3.5667745082326
0.61,2.21919029100166,134.484258180462,135.072783207841,-0.00876614127910022,0.942042587635126,0.899568557739258,-0.0147023318366072,3.49223860011353
0.62,2.35992650687041,134.429026450947,135.072783207841,0.0118831172836391,0.91406239575318,0.84626567363739,-0.132884514641111,3.33487168413443
0.63,2.50067034622001,134.395200830057,135.072783207841,-0.0160780768937664,0.825327045151055,0.774659216403961,0.0175096160259738,3.43211566650186
0.64,2.64140865295321,134.388727323984,135.072783207841,-0.126146062722616,0.848006546163353,0.833729386329651,0.678457441900921,3.64321026284573
0.65,2.78214448403666,134.383166360304,135.072783207841,-0.133912486988132,0.755881191814882,0.752818763256073,0.713536200231656,3.70558566343656
0.66,2.92287864388919,134.477991830028,135.072783207841,-0.0227494690304463,0.878280398634294,0.850280046463013,0.0582426869993812,3.55175224939635
0.67,3.06360930458825,134.4611786839,135.072783207841,0.0248720622805756,0.839723107899184,0.832263112068176,-0.24027761234099,3.67798286661425
0.68,3.20434753358859,134.370576354653,135.072783207841,0.0525949604078721,0.795638776917417,0.786683619022369,-0.40229411746687,3.66267671853649
0.69,3.34508527369531,134.384300451646,135.072783207841,0.11796548918178,0.818715473529862,0.832316875457764,-0.785784296576587,3.7883131225177
0.7,3.48581282081677,134.405429817833,135.072783207841,0.0532430739930808,0.880843491685137,0.827465891838074,-0.396968198649272,3.39724718660558
0.71,3.62655436471994,134.396683623006,135.072783207841,0.0354529534369467,0.841569650748294,0.845446169376373,-0.300896957801987,3.73177175629973
0.72,3.76729412898948,134.418061392201,135.072783207841,0.0165486832188755,0.870913757500454,0.873475968837738,-0.183291465417595,3.72004037851072
0.73,3.90802726922714,134.378804856629,135.072783207841,0.0866260366639261,0.84347266704351,0.861703217029572,-0.603019385240977,3.82095496738012
0.74,4.04876352672388,134.335094223174,135.072783207841,0.0631023806474611,0.899961430594876,0.871858596801758,-0.465132733326672,3.54206386417145
0.75,4.18949245780181,134.335241125207,135.072783207841,0.0118233455712136,0.900427366924201,0.871953308582306,-0.160817218785594,3.55296843997998
0.76,4.33023240615184,134.400665439844,135.072783207841,-0.0440880077513889,0.885202781590915,0.835113406181335,0.176675764053838,3.42367471638075
0.77,4.47098091716664,134.375909635001,135.072783207841,-0.067027986825544,0.814951340890618,0.794095635414124,0.313562985443621,3.58768462850562
0.78,4.61172105357234,134.415217585517,135.072783207841,-0.065078467546855,0.834222849363124,0.848513662815094,0.312159965504446,3.79509587126114
0.79,4.75245254654673,134.392840711126,135.072783207841,0.0693221079631531,0.843471442241494,0.840839684009552,-0.483300097244049,3.69832542794276
0.8,4.89318897662945,134.368545335632,135.072783207841,-0.112412695624321,0.786202775979627,0.799042940139771,0.606773396130618,3.79078770472048
0.81,5.03391912195575,134.440204006341,135.072783207841,-0.0483591268195969,0.797277420495799,0.799194037914276,0.219516378219887,3.73094543305815
0.82,5.17465205122726,134.39089202906,135.072783207841,-0.085774170782776,0.745108502422082,0.806741058826447,0.423561364282819,4.08725308339967
0.83,5.31538967813346,134.425095649075,135.072783207841,-0.0647947494046699,0.744540671471324,0.770940005779266,0.289400333506879,3.86766262340367
0.84,5.45612375927568,134.451809540613,135.072783207841,0.0965892630066955,0.798487686914064,0.82461279630661,-0.688040620770787,3.86399408744721
0.85,5.59684761265661,134.39442630281,135.072783207841,0.0938284410218779,0.828363986002002,0.891191899776459,-0.655095286683507,4.09828223371428
0.86,5.73758404582551,134.363423833721,135.072783207841,0.0624193940293898,0.798075633917239,0.825490891933441,-0.474713402957969,3.88042407857987
0.87,5.87831966487629,134.40071487954,135.072783207841,0.0467625687255213,0.883888215093623,0.834686517715454,-0.367705279100166,3.41948994962277
0.88,6.01906323478029,134.416670161308,135.072783207841,0.0211379230392823,0.858911686954724,0.852023243904114,-0.20394984993883,3.66067680334685
0.89,6.15979572623663,134.406646976312,135.072783207841,-0.00311084946616663,0.863271988587276,0.854285836219788,-0.0650872762409057,3.65632685099044
0.9,0.0173485033417595,134.419609799318,135.072783207841,0.0375176383315224,0.930003575170679,0.87041437625885,-0.296226880937216,3.34875213799972
0.91,0.158086911421176,134.411911881928,135.072783207841,0.0192853394231089,0.862118568356336,0.865235865116119,-0.173660586501326,3.72736452617578
0.92,0.29881742891321,134.339590630725,135.072783207841,-0.011614389751489,0.900281827786829,0.863941669464111,0.0333221145256817,3.50335156701584
0.93,0.439555725193435,134.390879577798,135.072783207841,-0.0694694443815922,0.899866133257546,0.825916230678558,0.387691837129536,3.27345933779383
0.94,0.580292238965319,134.399824261988,135.072783207841,-0.0735600139733944,0.892161208034689,0.827535152435303,0.395279118263665,3.32699231063956
0.95,0.721023784674768,134.371930659729,135.072783207841,0.0405650219517178,0.834296592418011,0.836516201496124,-0.29959340178827,3.73521041790577
0.96,0.861757755280475,134.398142736683,135.072783207841,0.0599669522182373,0.839974714946725,0.828966498374939,-0.424032639930407,3.66253246442508
0.97,1.00249695416023,134.340888675975,135.072783207841,-0.041627995152732,0.807342102044202,0.836682856082916,0.166873666583239,3.89984211043851
0.98,1.14322173626659,134.405737099611,135.072783207841,-0.105126212456759,0.805372205829905,0.805997014045715,0.536758499988958,3.73952730667484
0.99,1.28396209351151,134.421185219179,135.072783207841,-0.0993145367264633,0.74518360020672,0.77985006570816,0.491844958027575,3.9292525894102
1,1.42469713354514,134.438459507676,135.072783207841,-0.00158398276749361,0.839705492171924,0.80730402469635,-0.0885195163123829,3.52025224229853
1.01,1.56542542031094,134.454265399302,135.072783207841,-0.0314262578838412,0.81168745472295,0.858718574047089,0.0876241430310573,4.0008213781384
1.02,1.70615712895717,134.35646196993,135.072783207841,0.0301740260373911,0.800973894868087,0.799860298633575,-0.280722670208252,3.70806005990211
1.03,1.84689336293993,134.390524100871,135.072783207841,-0.0258160246022685,0.757113964036979,0.779686689376831,0.062657682244218,3.84644925687114
1.04,1.98761945399188,134.403990592337,135.072783207841,-0.00562557707240896,0.860624412261917,0.860007464885712,-0.0458716702924384,3.71757800925558
1.05,2.12835345173433,134.400046373984,135.072783207841,-0.007559554123719,0.883050567067838,0.803125143051147,-0.0158974081556722,3.23951972331998
1.06,2.26909476190357,134.383331635143,135.072783207841,-0.0107560044680088,0.902272226817246,0.864318072795868,0.0209058035608868,3.48403794812607
1.07,2.4098228905365,134.365482592938,135.072783207841,0.0345902615634116,0.910664408116283,0.866061329841614,-0.245507389941669,3.45796455851858
1.08,2.55056323467689,134.371366041525,135.072783207841,0.0639096195213302,0.914528842988106,0.878463685512543,-0.444804819422223,3.50905069040485
1.09,2.69130303117824,134.3357067584,135.072783207841,-0.0152823878823862,0.898145527757717,0.864443838596344,0.0364402059105072,3.51998540716056
1.1,2.83204287920215,134.388180874616,135.072783207841,0.016739393874965,0.889104390025814,0.852648556232452,-0.163518484799261,3.50373732336122
1.11,2.97278365597772,134.364693538351,135.072783207841,-0.0633996371701426,0.850510321029857,0.799334406852722,0.321559095773422,3.41137462545208
1.12,3.11351683040874,134.405587202712,135.072783207841,-0.00059102413909129,0.82130397169752,0.81479674577713,-0.0761508486252422,3.68494097803084
1.13,3.25425836876977,134.422457305425,135.072783207841,-0.00106286817568829,0.881675860868459,0.825177907943726,-0.0816882969135538,3.37583660522393
1.14,3.39499042282579,134.383352888742,135.072783207841,-0.080515277389587,0.874766737184795,0.868236660957336,0.391164161209632,3.67939450058801
1.15,3.53572979260967,134.357658876237,135.072783207841,-0.0683938975983987,0.742533773601124,0.762473523616791,0.31482183191865,3.83284948170508
1.16,3.67645274243649,134.443465115504,135.072783207841,-0.0013625141774023,0.758659259667032,0.797289609909058,-0.0864486771585211,3.95991241596982
1.17,3.81719119144788,134.398860158316,135.072783207841,-0.0605019772611965,0.75987448339585,0.838541746139526,0.259898593973222,4.19102361854531
1.18,3.95792920159627,134.474566824679,135.072783207841,0.0243966366029351,0.860052744686761,0.873256087303162,-0.25961078010984,3.78629362113076
1.19,4.09867283417522,134.44136088818,135.072783207841,0.0974743753562761,0.792739358821614,0.796986281871796,-0.678079911932291,3.7181279299153
1.2,4.23941129181414,134.382756603051,135.072783207841,0.0827348649040189,0.79496608813956,0.799418210983276,-0.585921724657406,3.71106252183738
1.21,4.38015379836443,134.375186105465,135.072783207841,0.0190837612333626,0.836380582095544,0.824410557746887,-0.19472246824638,3.6049205050657
1.22,4.52088603516466,134.3956653268,135.072783207841,0.032527492289036,0.922676666531159,0.874063611030579,-0.269897892816781,3.39270147060545
1.23,4.66162242846757,134.404602992047,135.072783207841,-0.0318490759758582,0.8645200201663,0.85258024930954,0.116338634904726,3.62108728042923
1.24,4.80235481518124,134.39423628368,135.072783207841,0.0368353078341481,0.904980159403461,0.833739042282104,-0.296823390094166,3.27124147477434
1.25,4.94308686742468,134.376093895286,135.072783207841,0.0347542031274397,0.825948905312177,0.807129263877869,-0.300578509580018,3.5946246704424
1.26,5.0838201590469,134.406472083871,135.072783207841,-0.0105202408048636,0.919598641455549,0.856003165245056,-0.0289001783907978,3.33486250427362
1.27,5.22455667766623,134.395606113911,135.072783207841,-0.00102140296002662,0.906165661334059,0.832340478897095,-0.0967977119003528,3.27425396915926
1.28,5.36529625677356,134.386514624533,135.072783207841,0.0395057869321019,0.826567070506057,0.81340891122818,-0.333675134070256,3.63315246801213
1.29,5.50602321729395,134.388456745066,135.072783207841,0.0296790647174343,0.919041199553205,0.873235642910004,-0.281648119933383,3.45173276213913
1.3,5.64676004643547,134.416956631556,135.072783207841,-0.0032199779970607,0.881033468989188,0.842380285263062,-0.0967904513811351,3.49161751514028
1.31,5.78747907449157,134.300196985201,135.072783207841,-0.0906461605686115,0.864038995827507,0.942867696285248,0.43131894199858,4.22119599752126
1.32,5.9282232802925,134.41868362944,135.072783207841,-0.111135202541109,0.791990164366338,0.786439597606659,0.557393210872258,3.70385538301812
1.33,6.06895834111873,134.415107052631,135.072783207841,-0.0224418499342114,0.796636511237822,0.78816020488739,0.0188907472944282,3.67759047057095
1.34,6.20969581701658,134.416858758804,135.072783207841,-0.0578498083736778,0.764653572689767,0.834922552108765,0.228986029950297,4.1435066339804
1.35,0.067242513626752,134.443841996417,135.072783207841,0.0203706623298792,0.850041553458009,0.856911420822144,-0.244436047761299,3.76003384816071
