t,theta,omega,r,i_d,i_q,i_q_ref,v_d,v_q
0,0,0,297.177603814462,-2.26392486419542e-24,0,0,0,0
0.01,0.0649034535810444,127.19493509528,297.177603814462,0.182682275469717,7.56433723116603,10,-1.19929117411925,18.3773073958424
0.02,0.264925067529296,252.389193167131,297.177603814462,0.254761691758176,7.76955384870275,10,-1.95309513198371,20.5435162468042
0.03,0.566007028456327,295.40514864935,297.177603814462,-0.0400226868615059,1.6840620343792,1.84026968479156,-0.420833343852711,9.17802505322349
0.04,0.875588755927192,295.61983196839,297.177603814462,-0.0931310430733613,1.7015219177444,1.78890323638916,-0.102912246897157,8.99441176888323
0.05,1.18521784245324,295.631176629725,297.177603814462,-0.0209617285120777,1.80005155998871,1.88014805316925,-0.566914508081506,9.09093805605276
0.06,1.49485494470234,295.646652680745,297.177603814462,-0.0547624809928877,1.84483578232528,1.8749635219574,-0.389813010430405,8.91611046781381
0.07,1.80450248271147,295.621969566967,297.177603814462,0.020283639044872,1.92478053311507,1.97858357429504,-0.868293146404382,9.16413944781448
0.08,2.11416621506895,295.693800102872,297.177603814462,-0.00663596727461113,1.88238160674756,1.90126872062683,-0.71097969994267,9.03551279898469
0.09,2.42383303742151,295.654292631506,297.177603814462,0.0186708072988607,1.79335611057502,1.84576892852783,-0.871746934443492,9.30976467177953
0.1,2.73351671235943,295.732712813746,297.177603814462,0.0267528735347901,1.82507345361999,1.84539437294006,-0.901514083773757,9.16237186256175
0.11,3.04320848737981,295.7332289911,297.177603814462,0.0667982233282223,1.69960014261662,1.79136228561401,-1.13535729977218,9.62381527275782
0.12,3.3529000701828,295.777251354521,297.177603814462,0.0703359980149737,1.64826432541762,1.76158452033997,-1.17301718903161,9.78661282929474
0.13,3.66259946866827,295.840447397523,297.177603814462,0.0810535774832402,1.64005382629893,1.6683257818222,-1.24643329212406,9.29769132875862
0.14,3.97230778067545,295.869203749661,297.177603814462,0.0210473219675876,1.68888494064024,1.77786231040955,-0.885245670113625,9.67025084227868
0.15,4.28201064702646,295.861380951572,297.177603814462,0.0143637534656183,1.76213466559902,1.78947913646698,-0.825578805682035,9.3188228433053
0.16,4.59171724781942,295.722635923853,297.177603814462,0.0124723433884799,1.63440799671565,1.64818620681763,-0.809286716480314,9.25219600688828
0.17,4.90141737157012,295.724051500071,297.177603814462,-0.0290669331437602,1.62768886863806,1.57586205005646,-0.575080800589247,8.86709216307604
0.18,5.21112307298185,295.626988406231,297.177603814462,-0.0212120809759141,1.62422063191079,1.60913574695587,-0.617833570618935,9.09224618070227
0.19,5.52083335629212,295.57801473748,297.177603814462,-0.0864932663863059,1.64723199704719,1.64891350269318,-0.234686847124055,9.19126764948202
0.2,5.83052951298738,295.691839423955,297.177603814462,0.0689669450851855,1.82947937398537,1.8108651638031,-1.17658558280977,9.08107726773351
0.21,6.14024747498377,295.728401381185,297.177603814462,0.0530764781076887,1.87071434365399,1.82516932487488,-1.0719158207764,8.90578266164159
0.22,0.166761586749582,295.762822170192,297.177603814462,0.0349417464997539,1.8324820815717,1.83475351333618,-0.975493700251747,9.20334783281273
0.23,0.476474515973304,295.757765816851,297.177603814462,-0.0902864970293799,1.83685146288648,1.8451281785965,-0.219648866082332,9.23721707592719
0.24,0.786183324929007,295.788571823026,297.177603814462,0.033648596867111,1.83698727467796,1.83145201206207,-0.93319506124029,9.15960576813103
0.25,1.0959010496157,295.784045697663,297.177603814462,0.0720160681251007,1.7544008593181,1.77364838123322,-1.16972468945677,9.29711476135527
0.26,1.40561744612053,295.829408066641,297.177603814462,0.022725061311877,1.66469715042509,1.72092616558075,-0.886708360897195,9.51345481042795
0.27,1.71532310677457,295.857225967016,297.177603814462,-0.0530179499051741,1.67209384573612,1.82831728458405,-0.437160514950374,10.1297645084627
0.28,2.02502313174994,295.891214606847,297.177603814462,0.0351480547990251,1.6996571816946,1.79901373386383,-0.967171524585129,9.80992080467274
0.29,2.33475368715775,295.903420247754,297.177603814462,-0.0527951683344884,1.56507747043193,1.64146101474762,-0.432279749032627,9.65155505207229
0.3,2.64445722905752,295.859629822009,297.177603814462,-0.0419555807564048,1.63983136031404,1.66224646568298,-0.476584939356844,9.34047414832712
0.31,2.95417543375232,295.714961483551,297.177603814462,-0.107835393282794,1.59808670382961,1.60385572910309,-0.101028119948517,9.22416344209893
0.32,3.26387946796796,295.647000734335,297.177603814462,0.0372628961224883,1.62742697971415,1.61910831928253,-0.981469546865026,9.14494749373664
0.33,3.57357910951021,295.636189709771,297.177603814462,0.0416746419182726,1.66263699164731,1.63253164291382,-0.989327796565845,9.02104509921702
0.34,3.88328482828017,295.680401899862,297.177603814462,0.0118722612947819,1.89736055215295,1.90428185462952,-0.790544226153693,9.23685444934181
0.35,4.19299267066056,295.708729597326,297.177603814462,-0.0649898513635926,1.85971720657765,1.80670976638794,-0.330508646133231,8.87342945937607
0.36,4.50269556682954,295.710613378867,297.177603814462,0.0527062607917221,1.90880280373063,1.83216989040375,-1.04744387048525,8.74052878184926
0.37,4.81240509853893,295.625712554037,297.177603814462,-0.025773646249831,1.74744885598059,1.73102962970734,-0.568020463745875,9.10182595618053
0.38,5.12210585986604,295.674806544457,297.177603814462,-0.0169089353835314,1.79588942199289,1.79092884063721,-0.632304319301985,9.18408577227243
0.39,5.43181993303688,295.768677097164,297.177603814462,0.0986553328108846,1.69860480095865,1.77686870098114,-1.34576656564114,9.6795801972759
0.4,5.74151531314172,295.79002212666,297.177603814462,0.0699139950736948,1.73076814872402,1.82256317138672,-1.18485014642812,9.78339433780915
0.41,6.05122121020656,295.807982134912,297.177603814462,0.123184091162953,1.74678737697211,1.77903211116791,-1.51714169947234,9.43757601220375
0.42,0.0777595639157305,295.874106879118,297.177603814462,0.0219572673835626,1.70757078563764,1.79796576499939,-0.919251273690765,9.77533475091035
0.43,0.387468743991851,295.827926702889,297.177603814462,-0.0282562492813737,1.76093477566745,1.76620042324066,-0.622257863689373,9.26970081226268
0.44,0.697184139303667,295.778448656324,297.177603814462,-0.0678965528162311,1.72681120421676,1.70187056064606,-0.340551489675201,9.08848428097384
0.45,1.00689681682576,295.731162925935,297.177603814462,-0.0230167468193194,1.6320234397723,1.62701690196991,-0.60323271224464,9.20476663850883
0.46,1.31661771384527,295.622467350459,297.177603814462,-0.0100795846590457,1.62123755594292,1.58520209789276,-0.684210819467963,9.00041382003643
0.47,1.62631682024233,295.618668862442,297.177603814462,-0.0901531839589587,1.64015644710299,1.62719297409058,-0.21945562217799,9.15052753915915
0.48,1.93602165208782,295.711415368167,297.177603814462,0.0919434981747438,1.83527775831672,1.77437543869019,-1.33350574809541,8.86348525532437
0.49,2.24573513047446,295.702691888827,297.177603814462,0.00075667817887156,1.87736698798999,1.79039561748505,-0.770126726232816,8.69810436504473
0.5,2.55545748982257,295.706173833136,297.177603814462,0.0375715714018511,1.80124688545029,1.78442025184631,-0.97135813116128,9.10080903037582
0.51,2.86517016706374,295.721096578791,297.177603814462,-0.109990582379655,1.80923799782087,1.81965863704681,-0.0702663736252601,9.25493264557742
0.52,3.1748758230387,295.729072638603,297.177603814462,0.0377308146629404,1.79766830550472,1.7884806394577,-0.959212177381914,9.1343275105008
0.53,3.4845901730238,295.811723579021,297.177603814462,0.0611334306153832,1.73030152442724,1.80269432067871,-1.09727461514421,9.61688523830643
0.54,3.79430093518575,295.776893101941,297.177603814462,0.0410979921360648,1.71017775521791,1.77409064769745,-0.973496688939229,9.56846271880553
0.55,4.10401180354136,295.840274026235,297.177603814462,0.0449950525980911,1.66181259500922,1.75573968887329,-1.01105817652765,9.75042183209606
0.56,4.41373319444453,295.804240405562,297.177603814462,-0.0195789884061656,1.64861180434355,1.71945774555206,-0.629178494031985,9.60270153041584
0.57,4.72344030307826,295.868359497053,297.177603814462,-0.0797112332350809,1.63050342624782,1.74826014041901,-0.262706884329993,9.89676578355673
0.58,5.03315245820103,295.821559751667,297.177603814462,-0.0440406884783279,1.73567991476025,1.72552812099457,-0.480616986791271,9.13124714122758
0.59,5.34286444325178,295.782823086304,297.177603814462,-0.135070801510422,1.63122335840275,1.66668581962585,0.0926961611518845,9.40927389789692
0.6,5.65257692034606,295.694850168225,297.177603814462,0.0757974764873374,1.6389929411055,1.6188188791275,-1.19630337482369,9.07601953383777
0.61,5.9622844544005,295.68584975095,297.177603814462,0.0607448979922486,1.67413517488698,1.64615333080292,-1.12031001001152,9.03449123690838
0.62,6.27199536884785,295.70891392067,297.177603814462,-0.005437754323185,1.77042099343603,1.736900806427,-0.708471094826982,8.99320240626036
0.63,0.298508397960429,295.703250777881,297.177603814462,0.0555581924869202,1.82754285749986,1.82823550701141,-1.07090656442369,9.2064513048285
0.64,0.608221940706429,295.726949672618,297.177603814462,0.0116350696116871,1.8057359914386,1.80155146121979,-0.802724429393936,9.16712125303952
0.65,0.917930163017509,295.732222358932,297.177603814462,-0.0441444516650228,1.85844412254167,1.82737278938293,-0.465848770859883,9.00749973450993
0.66,1.22763967064822,295.666062778993,297.177603814462,-0.0504807205408903,1.77809838719682,1.75360321998596,-0.417377126643452,9.04527533068879
0.67,1.53734714201201,295.771899708427,297.177603814462,0.0647624315427598,1.71529963311969,1.80216574668884,-1.11512548501985,9.72069095254989
0.68,1.84705367015821,295.741799709219,297.177603814462,0.0520024892046632,1.68936535058054,1.74578499794006,-1.04406255533178,9.54394796976152
0.69,2.15676016696667,295.7360478265,297.177603814462,0.0737557544445538,1.63488621712862,1.77442932128906,-1.17307526886729,10.0497083379756
0.7,2.46648033293253,295.785075648149,297.177603814462,0.017241127405742,1.66959715111354,1.72371685504913,-0.834366595901755,9.52465450469655
0.71,2.77619147420786,295.854838088252,297.177603814462,-0.0620765112673508,1.62905892106307,1.77672815322876,-0.357094155640521,10.0992427838987
0.72,3.08590635998748,295.862184990797,297.177603814462,0.00739648184212038,1.65615546720065,1.64803671836853,-0.766174275112397,9.16356727690876
0.73,3.3956193300153,295.782927829395,297.177603814462,-0.0430308208221435,1.6276391387954,1.65249443054199,-0.479914538795577,9.359027889789
0.74,3.70534384377426,295.691145946706,297.177603814462,-0.00440765394315235,1.60967449857207,1.53667533397675,-0.710164195033749,8.7548952601977
0.75,4.01504179893864,295.680890734979,297.177603814462,0.0672181711587557,1.67555818676848,1.6205575466156,-1.13760736155921,8.88372344702708
0.76,4.32474768904914,295.708428759248,297.177603814462,-0.0328948464220563,1.81166695874139,1.70814347267151,-0.548962918885446,8.59899154047691
0.77,4.63446722631884,295.683775772066,297.177603814462,-0.038996727019969,1.8586003460512,1.7568187713623,-0.490176527656597,8.59055017144655
0.78,4.94417291420026,295.706533775706,297.177603814462,0.000651441539049918,1.95133578245869,1.87008166313171,-0.698145868814021,8.72163629451718
0.79,5.2538901841704,295.728075710967,297.177603814462,0.0191279738621788,1.82545984074438,1.84032618999481,-0.807619870359907,9.29116989252409
0.8,5.56360249642644,295.798468665927,297.177603814462,0.145598942344464,1.86813736223888,1.86890280246735,-1.59487970407778,9.2009692475813
0.81,5.87330974507862,295.723298739579,297.177603814462,0.0501025768875124,1.78031368262412,1.76232004165649,-1.01511565542639,9.09038852872967
0.82,6.18302356443218,295.752272880785,297.177603814462,-0.0180185067450763,1.72099360979662,1.76874268054962,-0.594400679775791,9.48342455782016
0.83,0.209553997322317,295.808519973561,297.177603814462,0.0429399601812196,1.65749813347206,1.73891949653625,-0.975256678753232,9.67950016254123
0.84,0.519256509726038,295.879444929513,297.177603814462,0.033857600123353,1.68648909558002,1.79245018959045,-0.934649075703355,9.84467166673942
0.85,0.828980715328992,295.906733762539,297.177603814462,0.0687007781345859,1.65686507623454,1.73505330085754,-1.16036921678467,9.66660566638875
0.86,1.13868558250658,295.954459630988,297.177603814462,-0.0704791076843395,1.67124711882881,1.7302520275116,-0.337102944411644,9.56532154384825
0.87,1.44839062081677,295.875541757598,297.177603814462,-0.0500115146775308,1.73763485758956,1.74918568134308,-0.434979172459812,9.28720259790527
0.88,1.75810959249901,295.717791843675,297.177603814462,-0.105965561682837,1.61376693425004,1.61728727817535,-0.127165335327318,9.21668820337366
0.89,2.06782121711604,295.673903211426,297.177603814462,0.0663649208424247,1.63331977229306,1.60690808296204,-1.17396960597923,9.03666940456764
0.9,2.37752572122547,295.72932490352,297.177603814462,0.0208443752547981,1.76933877743188,1.75063538551331,-0.902471356207001,9.08757874677787
0.91,2.68723261720601,295.708990812513,297.177603814462,-0.0538472993303818,1.76485196497721,1.70611071586609,-0.428783286195274,8.84491968751213
0.92,2.99693520278062,295.668755396561,297.177603814462,-0.0335327419793361,1.91582429786355,1.89303922653198,-0.545665220889882,9.06589869399971
0.93,3.306647463564,295.718132113747,297.177603814462,-0.00196757288107563,1.83804644711497,1.80655539035797,-0.764079588100456,9.00790919499596
0.94,3.6163556261745,295.744512010686,297.177603814462,0.0336100368155564,1.818750132604,1.84863650798798,-0.979874396292537,9.37727610851591
0.95,3.92606077457333,295.705543670454,297.177603814462,-0.011602763608173,1.8134688888671,1.82337522506714,-0.701365256962915,9.26616550652685
0.96,4.2357656862553,295.790348484719,297.177603814462,0.0948330903832185,1.71770288578049,1.83151412010193,-1.32466094958405,9.89898092585504
0.97,4.54547889997331,295.749657599706,297.177603814462,-0.022797982157485,1.65195556810277,1.77400434017181,-0.614404168489614,9.94718977180257
0.98,4.8551890572171,295.845000079625,297.177603814462,0.0470181428099584,1.53215003572293,1.61378693580627,-1.01508286436257,9.71107795196243
0.99,5.16489765039284,295.843210167244,297.177603814462,0.0388771043057637,1.67302055797508,1.74452888965607,-0.972233394559575,9.65794263896266
1,5.47461139034927,295.863626173281,297.177603814462,-0.0713079078219595,1.63780758411263,1.7619720697403,-0.290301796508113,9.97881773072493
1.01,5.7843188246279,295.902817144359,297.177603814462,-0.0597227269708691,1.8025102883636,1.77810537815094,-0.334229925503835,9.0966182928323
1.02,6.09403004179014,295.812253208673,297.177603814462,-0.106362012067306,1.64910838120693,1.69051480293274,-0.0545041564745751,9.4885800834752
1.03,0.120562883233941,295.650378470373,297.177603814462,-0.109688903696303,1.70742746370979,1.62991106510162,-0.0331467102996651,8.76342278856857
1.04,0.430279660865622,295.697774113154,297.177603814462,0.00833497386287896,1.80170289029416,1.70701837539673,-0.741054103958523,8.64886930462342
1.05,0.739994840518335,295.723381465686,297.177603814462,-0.00347447426183489,1.81082656724854,1.76007485389709,-0.669535255143203,8.8988352221183
1.06,1.04971371464685,295.693715254796,297.177603814462,-0.0207192675418294,1.93056335017939,1.84075033664703,-0.552146604905301,8.64850089666024
1.07,1.35941886723317,295.706067877387,297.177603814462,0.0672896998206003,1.90362645688872,1.82967114448547,-1.07050690851712,8.75055949822581
1.08,1.66914149641855,295.731790640273,297.177603814462,0.108815946512248,1.77470197566136,1.75418519973755,-1.32504316702082,9.05058931904277
1.09,1.9788418202309,295.787218344634,297.177603814462,0.0837209527721403,1.83898875840911,1.82404339313507,-1.17691925968698,9.09867814635195
1.1,2.28854973354795,295.856534034498,297.177603814462,0.0231520179433709,1.76238838943851,1.83218228816986,-0.834471990996924,9.611214225832
1.11,2.59824681777297,295.831735123404,297.177603814462,0.0435409068319071,1.75050161668066,1.86003613471985,-0.950633631360532,9.87125848598739
1.12,2.90796045739356,295.863827490213,297.177603814462,-0.0207125664624188,1.6972961807322,1.7629382610321,-0.558144314067785,9.60494407852386
1.13,3.21767988697713,295.833799978038,297.177603814462,-0.00563485848327638,1.64705489386278,1.69185602664948,-0.640171543683532,9.47264025323479
1.14,3.52739609952936,295.887745714266,297.177603814462,0.0248387838095134,1.59916839903218,1.67391157150269,-0.843889598135581,9.6545135090463
1.15,3.83711317443901,295.881401125052,297.177603814462,-0.0988371807566149,1.62060337225862,1.65777373313904,-0.115737279090262,9.42503282535223
1.16,4.14681161336264,295.76118403826,297.177603814462,-0.0730052740516908,1.70924308711767,1.66491901874542,-0.279991024917901,8.95778194576364
1.17,4.4565217189328,295.757433160219,297.177603814462,-0.0634206854008073,1.72884074342148,1.68924987316132,-0.348861653603527,8.98425660038344
1.18,4.76623254734769,295.724146325187,297.177603814462,0.0455303554017064,1.71133298140831,1.70052778720856,-0.997893281010602,9.1600232550321
1.19,5.07594407261985,295.694319912273,297.177603814462,-0.00486817299038045,1.70668966475358,1.69215857982635,-0.69461418782612,9.13590491772324
1.2,5.38563952069512,295.6719133916,297.177603814462,-0.0212675833308144,1.92539693972774,1.85564589500427,-0.609741212892225,8.81823778261788
1.21,5.69535026440153,295.757969683543,297.177603814462,-0.0420643526637271,1.9043319173103,1.87150824069977,-0.489919685432556,9.0358045760364
1.22,6.00506879318986,295.741524700929,297.177603814462,0.0138027799415279,1.90836368818803,1.86607468128204,-0.829252080434103,8.95768899160039
1.23,0.0315997379960109,295.765266562997,297.177603814462,0.00284735422058491,1.82583617377812,1.78458166122437,-0.74583059071636,8.95188829831616
1.24,0.341311176099858,295.786753645914,297.177603814462,0.0160488607292695,1.73172995244868,1.80922865867615,-0.808881127872092,9.66363699878877
1.25,0.651021546438542,295.728204642631,297.177603814462,0.0551261705924398,1.56078228886994,1.68225347995758,-1.0269456469165,9.92503000587545
1.26,0.960719385514963,295.741110194598,297.177603814462,0.0913194164312985,1.63055089771746,1.77254939079285,-1.25960315032974,10.0666365201196
1.27,1.27043214887905,295.819683949484,297.177603814462,0.00836891250356619,1.68077751618394,1.7365837097168,-0.756226192241736,9.5529335986336
1.28,1.58014349548791,295.908404842169,297.177603814462,-0.000635058181133241,1.67296511974808,1.72105574607849,-0.729590819968467,9.51098069079383
1.29,1.88985282222666,295.755963118381,297.177603814462,-0.0759166986250678,1.70816022954055,1.70855367183685,-0.245912312561676,9.23126470332825
1.3,2.19957370642504,295.798568423056,297.177603814462,-0.0740099540050283,1.64407237038273,1.69401907920837,-0.226639928719316,9.51596529641622
1.31,2.50929879437537,295.714449542667,297.177603814462,0.0225709925355465,1.63319754260548,1.59545338153839,-0.820956915390196,8.97007804112247
1.32,2.81900590673909,295.671744456163,297.177603814462,-0.0419804675435158,1.65130976937612,1.62493312358856,-0.443242232294025,9.04268484220544
1.33,3.12872687927028,295.640879445318,297.177603814462,0.0589194016590835,1.67624118959287,1.62225472927094,-1.04912146453849,8.86334075786587
1.34,3.43843247575445,295.686829056273,297.177603814462,0.010782705888894,1.83832482177122,1.78687119483948,-0.782010450847724,8.87332900138603
1.35,3.74813477496011,295.776159974903,297.177603814462,-0.0589931820734382,1.88520701363005,1.88455176353455,-0.342961356107692,9.19382215331697
1.36,4.05784901668842,295.721396462742,297.177603814462,0.0837817170582675,1.88388906892992,1.84571802616119,-1.20463790973437,8.95854359091256
1.37,4.36754015158584,295.802779389253,297.177603814462,0.130977981795791,1.82498050439653,1.86458384990692,-1.49870549345382,9.4469543348185
