t,theta,omega,r,i_d,i_q,i_q_ref,v_d,v_q
0,0,0,59.4057701636035,-2.32383456128956e-24,0,0,0,0
0.01,0.0477779919012393,58.4873213206242,59.4057701636035,0.025167558019933,-0.967697319541649,-1.2855521440506,-0.186495345788307,-0.356059935164945
0.02,0.109595787243261,59.0457985411478,59.4057701636035,-0.09348396676272,0.335334612900629,0.37899774312973,0.533096341912243,1.98698812945445
0.03,0.171473757556232,59.0317521993857,59.4057701636035,0.00164384459135497,0.321398186573423,0.356998264789581,-0.0523776446153532,1.98199024033547
0.04,0.233361734025218,59.1183635500229,59.4057701636035,-0.0257744375981625,0.368517518105276,0.40239205956459,0.144627280312935,2.03144683806884
0.05,0.29525339298129,59.0852343552994,59.4057701636035,0.00952741731098392,0.336428415246565,0.33839938044548,-0.0888654983243778,1.8719394596191
0.06,0.357147714222946,59.1231226840842,59.4057701636035,0.0111389784694429,0.38109767367408,0.409678876399994,-0.0987382251139022,2.05028558614648
0.07,0.419044062323545,59.1049170891891,59.4057701636035,-0.0249271274840512,0.442323796788477,0.404266446828842,0.14816411165503,1.69231142546732
0.08,0.480945647436176,59.0966303408028,59.4057701636035,-0.048950082679793,0.314067278311124,0.330935686826706,0.290753358016556,2.01855701897238
0.09,0.542865539822055,59.1331716349029,59.4057701636035,0.0611706548653964,0.355436713880109,0.341816812753677,-0.32514823297682,1.84768971135806
0.1,0.604781369649521,59.0940265848116,59.4057701636035,-0.0303706801465861,0.350693520377045,0.317632168531418,0.182404072638142,1.7089509037883
0.11,0.666682798344565,59.171300298223,59.4057701636035,-0.0604549352698336,0.300858700126801,0.355810612440109,0.350085508973705,2.25095924519933
0.12,0.728591629842404,59.1602764394194,59.4057701636035,0.0306934247697889,0.386579958055788,0.365652918815613,-0.187703972857852,1.81065925888415
0.13,0.790498786506571,59.0976987632788,59.4057701636035,-0.00617213914087766,0.30141673664311,0.333462685346603,0.0359314888812074,2.11586371711493
0.14,0.852415229628292,59.0950086945858,59.4057701636035,0.00556378901740642,0.287481427095472,0.317294985055923,-0.0419696130528813,2.11854509204081
0.15,0.914322736555994,59.1176747431738,59.4057701636035,-0.0409559388029382,0.377685181014461,0.365065515041351,0.231385352806378,1.84971594998931
0.16,0.976226096031396,59.095366524385,59.4057701636035,-0.0051029614434038,0.373328716050084,0.411351174116135,-0.00654923769841495,2.17293802949762
0.17,1.03813319178183,59.065525187513,59.4057701636035,-0.031243837046593,0.306513325754783,0.291392147541046,0.158590278060784,1.86969029483904
0.18,1.10003872851834,59.156433977158,59.4057701636035,-0.0650759707584753,0.398626749489613,0.38381490111351,0.396020254101726,1.86350545523163
0.19,1.16196036144836,59.1141302223112,59.4057701636035,0.0962822856549858,0.336516513329814,0.281103491783142,-0.569681938101358,1.62956592358324
0.2,1.22386712308612,59.1456095174639,59.4057701636035,0.011150269813314,0.366102416885168,0.336885333061218,-0.0704661961547926,1.77194646190712
0.21,1.28577938830936,59.1881110418379,59.4057701636035,-0.0778158520099263,0.250803740554455,0.265857994556427,0.452585670253871,2.06197243807006
0.22,1.34767885401349,59.1028627312006,59.4057701636035,-0.0505753635116869,0.337948714333626,0.32063490152359,0.298340667116378,1.87645051767039
0.23,1.40960494959995,59.1970984870683,59.4057701636035,-0.0661700758054335,0.35564017776326,0.274516493082047,0.437216833014934,1.46523993344176
0.24,1.47152418295262,59.0987418865589,59.4057701636035,0.0615326553462847,0.338360915176577,0.324257284402847,-0.370778896505752,1.87424630614613
0.25,1.53342969402203,59.1182023910482,59.4057701636035,0.0635288464552631,0.358911809794104,0.357100427150726,-0.379391223975927,1.93510524466784
0.26,1.59534074696216,59.1943564530836,59.4057701636035,-0.0725387478220572,0.403800925291509,0.376647800207138,0.429416119864238,1.80337329460746
0.27,1.6572480062307,59.0871829110905,59.4057701636035,-0.0525876921375714,0.338640892803141,0.328587353229523,0.302712118793132,1.89413764073238
0.28,1.71917686180652,59.1528053554638,59.4057701636035,-0.00747449267293293,0.33777648163874,0.298090726137161,0.0652054568846887,1.69458256985566
0.29,1.78108471617969,59.1212349104824,59.4057701636035,0.0202008439589555,0.385110357255047,0.404142290353775,-0.113860701237282,2.06316612908205
0.3,1.84299270216046,59.0372407869496,59.4057701636035,0.0980167554146689,0.27335187553423,0.296282023191452,-0.579485112783412,2.07189904476236
0.31,1.90489677627941,59.0773123534486,59.4057701636035,-0.0985469173833595,0.345399720474291,0.378265798091888,0.603250870607972,2.16514862002668
0.32,1.96681114147438,59.1519977021416,59.4057701636035,-0.0230333171817182,0.397006351601047,0.39443701505661,0.138190297389012,1.92656150128462
0.33,2.02872662316689,59.1208101352032,59.4057701636035,-0.0539176686817886,0.384545273563675,0.356589645147324,0.346588927227744,1.77901239886948
0.34,2.09064083109014,59.101647326064,59.4057701636035,-0.0410793386083803,0.358062751702346,0.347800999879837,0.241897563032064,1.87970710538161
0.35,2.15254334428159,59.0737414524255,59.4057701636035,0.0489288541028123,0.277458271432323,0.30322402715683,-0.311565103637419,2.09944573980726
0.36,2.21444646012996,59.1299419715424,59.4057701636035,-0.0295463595546474,0.416391358834851,0.36758741736412,0.185193384530228,1.68495161829406
0.37,2.27636296574595,59.1274174622534,59.4057701636035,0.00338359077193236,0.368938665491229,0.345073908567429,-0.0201745216020344,1.8043279782302
0.38,2.33828562975055,59.1328537607356,59.4057701636035,0.075650430005629,0.346698108022666,0.308694452047348,-0.436738089547858,1.72602890526633
0.39,2.4001973568795,59.1027752921732,59.4057701636035,0.00676246554693072,0.387213482362061,0.339392185211182,-0.0523279566184127,1.6552896064109
0.4,2.46209716084095,59.1645042652453,59.4057701636035,0.0432224873784107,0.294806861231496,0.320034772157669,-0.278686957608897,2.11232431685077
0.41,2.52401345689093,59.130092331455,59.4057701636035,-0.000815387260325484,0.374935664456073,0.317541122436523,-0.0248113526637811,1.62310025619284
0.42,2.58592006112685,59.1648274377937,59.4057701636035,-0.067727665349886,0.368960615087206,0.341887414455414,0.378689760526774,1.79083337151412
0.43,2.64784000885639,59.1757523052855,59.4057701636035,0.112015375600141,0.379269156840938,0.35040295124054,-0.710995607771066,1.79078661469742
0.44,2.70974791979761,59.1012535461654,59.4057701636035,0.0117295626409729,0.366934226664974,0.355751246213913,-0.121169268657413,1.88447458970369
0.45,2.77165171323569,59.0974718162911,59.4057701636035,0.0116746327949224,0.369917459720038,0.395905703306198,-0.131023375128478,2.13296532058822
0.46,2.83355195093823,59.2137315413456,59.4057701636035,0.0125436954261043,0.42231484683922,0.422273188829422,-0.123486614997402,1.99214400148156
0.47,2.89547602619067,59.1893608881285,59.4057701636035,-0.102725363432462,0.371460366292617,0.301122784614563,0.608298762554313,1.53757615098816
0.48,2.95740258321502,59.1235942478379,59.4057701636035,0.062404877060156,0.454875763765074,0.406383812427521,-0.421572179728559,1.66542717152689
0.49,3.01931803309098,59.1357498982706,59.4057701636035,0.00948891673998073,0.374674514427684,0.355607718229294,-0.0882439364203911,1.81396873049412
0.5,3.08122143003866,59.0174547335132,59.4057701636035,-0.0439230730556867,0.271056727145345,0.252715736627579,0.20713116294395,1.84761633575728
0.51,3.14312671801679,59.1265644563479,59.4057701636035,0.0409719371388267,0.371149202561416,0.335128605365753,-0.293524336149216,1.74533800746663
0.52,3.20503703812488,59.1895903066287,59.4057701636035,-0.0497354022454002,0.361556609567218,0.308663129806519,0.280445337940095,1.63750952260188
0.53,3.26695565775366,59.1274145888471,59.4057701636035,0.0411578999191696,0.416814755147918,0.341127932071686,-0.30126480262005,1.50527800414098
0.54,3.32886330620734,59.0972854826666,59.4057701636035,0.0682156531786274,0.354423942430374,0.366371899843216,-0.451383114829662,2.01794371821918
0.55,3.39077378534727,59.0549228313994,59.4057701636035,-0.0775249307725829,0.261060059271933,0.26943051815033,0.400564361262164,2.02186512446799
0.56,3.45268298907788,59.1145513524235,59.4057701636035,-0.0766615664902054,0.355439053840372,0.351662695407867,0.394138823922522,1.9382571240762
0.57,3.51459824721871,59.1814953578764,59.4057701636035,0.0107556174691869,0.336419514277158,0.289239436388016,-0.0958345903780517,1.67592724663437
0.58,3.57651835667836,59.1002529934856,59.4057701636035,-0.0348782832956545,0.436788394066188,0.397978246212006,0.150874968514449,1.71715263618282
0.59,3.63842737320699,59.0872857449475,59.4057701636035,0.0423072198541682,0.30390949215056,0.322140723466873,-0.317094614810639,2.04461857572489
0.6,3.70033343862993,59.1606339140584,59.4057701636035,-0.0490350936138781,0.356760675386594,0.352539300918579,0.243146516892069,1.94535428759808
0.61,3.76223387759368,59.085139948241,59.4057701636035,0.0097536965763132,0.332217517233242,0.333210080862045,-0.0961229463551014,1.97024500230973
0.62,3.82415421094797,59.0932483429691,59.4057701636035,0.0238934407445024,0.298260447272772,0.228200882673264,-0.18153960774979,1.5451546947194
0.63,3.88606439082772,59.0826962948472,59.4057701636035,0.0131601856590291,0.439480025972253,0.41134512424469,-0.14108556191353,1.79232686438058
0.64,3.94797342831184,59.0739108367229,59.4057701636035,0.0481394833485757,0.274600702454125,0.292707175016403,-0.343655158577206,2.06512686559447
0.65,4.00988731650149,59.0667071558846,59.4057701636035,-0.0379327558318977,0.310928798906529,0.3088219165802,0.202491075652554,1.9613086470177
0.66,4.07179816944204,59.1110578206859,59.4057701636035,-0.0482000604449106,0.379167662043046,0.37194886803627,0.262067814917186,1.90950370820156
0.67,4.13371211748206,59.1125949609721,59.4057701636035,-0.0553526830251571,0.364559107487808,0.337065547704697,0.289994721570936,1.80717803026482
0.68,4.19562952226651,59.1128087206866,59.4057701636035,0.00503606179509453,0.380451402071654,0.326137155294418,-0.06555613643754,1.62509372017392
0.69,4.25754003130009,59.1262450012507,59.4057701636035,-0.0552499535838856,0.249155045616616,0.300546765327454,0.28967021845815,2.26390566218648
0.7,4.31943893178174,59.0991935713203,59.4057701636035,-0.00528252342151075,0.304922086726865,0.325643986463547,0.0140938700733878,2.10812806101136
0.71,4.38135352629193,59.1295941631989,59.4057701636035,-0.0690327127307283,0.325921251362787,0.244426026940346,0.422072049418614,1.46914572906908
0.72,4.44328682735778,59.1303959766829,59.4057701636035,0.0852797991280982,0.346345501107176,0.294449031352997,-0.481315661323984,1.63782772621497
0.73,4.50519757357613,59.1622387662232,59.4057701636035,0.0254078404962011,0.397132325509502,0.395848482847214,-0.139665216614334,1.92802169253716
0.74,4.56710479054292,59.1126438388892,59.4057701636035,0.0186414060662878,0.37613658018674,0.405244827270508,-0.134449328014169,2.12831122175838
0.75,4.62900481635026,59.1064562085947,59.4057701636035,0.000122572678546207,0.407333036707262,0.349427163600922,-0.0288167182726123,1.62367235935473
0.76,4.69091475348779,59.1379371021701,59.4057701636035,-0.0395494054373785,0.37089464506202,0.357344329357147,0.226680780790583,1.88034509121432
0.77,4.75283860384347,59.1486957962501,59.4057701636035,0.0103926205512669,0.367655114261965,0.337252825498581,-0.0738830415254837,1.78634848028514
0.78,4.81474625153853,59.1022681850241,59.4057701636035,0.0189850392286355,0.338843146577063,0.352289289236069,-0.119589386313933,2.03889329647222
0.79,4.87665510435345,59.1896195661062,59.4057701636035,-0.0325013556124539,0.361652661387898,0.322221845388412,0.163210292291778,1.74622025335036
0.8,4.93855660453738,59.0916616041201,59.4057701636035,0.0211683895640394,0.439826084928586,0.399265587329865,-0.158790186100541,1.74348055763112
0.81,5.00047226690282,59.1248386523617,59.4057701636035,0.076363544540414,0.367080967431017,0.35389244556427,-0.463562301022965,1.89465436784222
0.82,5.06239901591972,59.1334618762013,59.4057701636035,0.00702672051621944,0.331552879993958,0.315277248620987,-0.0860601215134642,1.87101155107899
0.83,5.12430987833606,59.162740942423,59.4057701636035,0.0120140551163115,0.385227065426789,0.333475321531296,-0.099095039440791,1.6414503018078
0.84,5.18622447148211,59.169522022676,59.4057701636035,-0.0809176465379692,0.342587835627247,0.355139851570129,0.452455922876997,2.05141232492529
0.85,5.24812856819467,59.1005310797089,59.4057701636035,-0.0275254944538081,0.352618514063474,0.31853461265564,0.138630927010224,1.76013667861425
0.86,5.31004781249613,59.1268072824799,59.4057701636035,0.00813350446038175,0.317571872303298,0.27494552731514,-0.067934199736058,1.69930769119546
0.87,5.37196459253073,59.1091129125623,59.4057701636035,0.0242439192112089,0.339179951571208,0.324505656957626,-0.215365804209641,1.86735406431128
0.88,5.43386628391409,59.1832087115909,59.4057701636035,0.113900283672254,0.460199348916542,0.459966003894806,-0.759332327799275,1.95290802331164
0.89,5.49578076147169,59.1116475694614,59.4057701636035,-0.0958236433194822,0.40999605511381,0.403527230024338,0.538033578585732,1.94299328705479
0.9,5.55769513653509,59.1194989099363,59.4057701636035,-0.056460359079159,0.359755442673591,0.360265672206879,0.307581255731116,1.9609690309115
0.91,5.61962624555681,59.0965427243474,59.4057701636035,0.0241978943595259,0.333072508873044,0.341094374656677,-0.137822673983585,1.99304949409298
0.92,5.68154248197331,59.1117019568133,59.4057701636035,-0.0334871702556165,0.36711479877198,0.343727052211761,0.180995379964357,1.79507469741945
0.93,5.74345244964042,59.0954125486707,59.4057701636035,0.0300488604763259,0.313298136141821,0.301092207431793,-0.205058765754807,1.85782393468727
0.94,5.80536437246171,59.1406109675765,59.4057701636035,-0.0121912863106271,0.33385050171848,0.332597285509109,0.0777762762942196,1.9495462128107
0.95,5.86727105354986,59.1346276866213,59.4057701636035,-0.0815302066915136,0.430907123334885,0.352251946926117,0.475817442076291,1.46701127459188
0.96,5.92918778614556,59.1392676338895,59.4057701636035,0.0660970760207814,0.356399166968554,0.335762470960617,-0.373233318669275,1.83364293217311
0.97,5.9911017191432,59.0831735031183,59.4057701636035,-0.0354105627801594,0.3356575911038,0.332150965929031,0.204945431635692,1.91786313552193
0.98,6.05300012116228,59.0608549581858,59.4057701636035,-0.00381731392722477,0.311765705197861,0.31819087266922,0.00485656942207521,1.99584418614801
0.99,6.11491040712395,59.1826541574561,59.4057701636035,0.0426764246997983,0.401711107741387,0.396358102560043,-0.262204234879547,1.94293671037457
1,6.17681908353375,59.1169765397854,59.4057701636035,-0.0526903935641028,0.325440607773409,0.257818877696991,0.314161117055374,1.55177973452688
1.01,6.23874569669789,59.1150500193356,59.4057701636035,0.0908441905731512,0.343621522752421,0.303076893091202,-0.528152747552675,1.71795578109316
1.02,0.0174741813690797,59.0727543983756,59.4057701636035,-0.0243921142098894,0.326719038664741,0.316984176635742,0.147924157718201,1.8857974542694
1.03,0.0793801575282425,59.1541835097705,59.4057701636035,0.0475160260503785,0.278739179478185,0.292110860347748,-0.3383508554098,2.04298506754574
1.04,0.141295389406661,59.0544143519269,59.4057701636035,0.0339566896180626,0.29929453632501,0.260084271430969,-0.237088637504412,1.72284950494282
1.05,0.203196173131229,59.1748428767262,59.4057701636035,0.00910515209204334,0.455516515890894,0.408778220415115,-0.0556114105815361,1.68016654945705
1.06,0.26512173365139,59.1169561764418,59.4057701636035,0.00699221765877374,0.361035274753214,0.348042964935303,-0.0551086814839336,1.88419400778363
1.07,0.327028857266323,59.0553643654818,59.4057701636035,0.037145894811127,0.316418244363749,0.324456870555878,-0.22817784726214,1.99880497496372
1.08,0.388946551687056,59.1253098882634,59.4057701636035,-0.0476950045936486,0.221733276623028,0.221446305513382,0.252956834391137,1.9624204098816
1.09,0.450848671165192,59.080786621573,59.4057701636035,0.0327761338749324,0.360319060243094,0.291240870952606,-0.206480967410198,1.5483346374629
1.1,0.512765020139674,59.1630119324916,59.4057701636035,-0.0545166603768922,0.354181606965892,0.314074069261551,0.343644076728341,1.71103128801089
1.11,0.574695314289539,59.1146612116083,59.4057701636035,0.0630616304776103,0.393795265376952,0.33241879940033,-0.397299341653131,1.57393592768456
1.12,0.636595512695492,59.1119831589737,59.4057701636035,0.0455815538951923,0.441031234789394,0.414199322462082,-0.285606475663816,1.77683926063205
1.13,0.698502013940041,59.0449671145566,59.4057701636035,-0.0684437163969312,0.299160244549677,0.337870627641678,0.388383605521169,2.20747561028164
1.14,0.760407301716472,59.0973482000969,59.4057701636035,-0.00566541707292981,0.36883547622564,0.303789079189301,0.0116798365488975,1.57651528977054
1.15,0.822325368768954,59.1825104923114,59.4057701636035,0.0421775441349931,0.360356354389517,0.336570054292679,-0.233351044596195,1.8208740392356
1.16,0.884250773371308,59.1609126905342,59.4057701636035,0.0212142479261369,0.397745280479595,0.401576936244965,-0.136786665005642,1.97222497629257
1.17,0.946150095806454,59.1131986282636,59.4057701636035,0.0621237035739195,0.381294827927552,0.356441020965576,-0.393095124954884,1.80151819154812
1.18,1.00806902569456,59.1689975068676,59.4057701636035,-0.082829171276442,0.384048062395003,0.418924272060394,0.4905999725808,2.17196682313687
1.19,1.06997809190562,59.1343566692947,59.4057701636035,-0.0539717590629371,0.376660908447874,0.34259557723999,0.296941395866125,1.7398377839817
1.2,1.13189023436708,59.1032996061361,59.4057701636035,0.0161159085282587,0.305859177563881,0.244107231497765,-0.108456709367423,1.59012508831148
1.21,1.19380314519826,59.1380533094323,59.4057701636035,0.0588978646510912,0.384195538120195,0.366717755794525,-0.367203291830015,1.84795889955755
1.22,1.25570459545811,59.1570518701864,59.4057701636035,0.0556534149021242,0.311973484872082,0.348173350095749,-0.347024219404098,2.17444708753192
1.23,1.31760805716758,59.1243326948454,59.4057701636035,-0.017617157963075,0.443576658161777,0.382840007543564,0.127294262622598,1.61513264725
1.24,1.37951830675568,59.1119697894392,59.4057701636035,-0.0266363148262738,0.411661485613905,0.33954456448555,0.177104407105928,1.52579440127335
1.25,1.44145252815443,59.1569038018473,59.4057701636035,0.0486527915009657,0.372030795606238,0.372743248939514,-0.231287852628588,1.95364362859742
1.26,1.5033626914558,59.116735223764,59.4057701636035,0.0407404953042399,0.348787839826415,0.353024452924728,-0.226463569689873,1.96301378753618
1.27,1.56527173468513,59.2398666014001,59.4057701636035,0.0123953249508655,0.509869539611139,0.494491815567017,-0.0585551721514414,1.85077113938665
1.28,1.62717959549327,59.1073688063948,59.4057701636035,-0.00464030239294932,0.362675117981692,0.294950276613235,0.047688875686696,1.55835685150335
1.29,1.68908242409895,59.1498009139385,59.4057701636035,-0.00440632933763313,0.348879383092101,0.352408915758133,0.0505208228039731,1.98128945224361
1.3,1.75100798467179,59.1830115405675,59.4057701636035,0.0162115722739,0.347904409774455,0.342948347330093,-0.0764626190445652,1.936395361795
1.31,1.81292402918326,59.1168603290124,59.4057701636035,0.0129237152035234,0.371897167918758,0.356962889432907,-0.0832467044900663,1.85103868485277
1.32,1.87483150325079,59.1795032097906,59.4057701636035,0.0619631001211213,0.282695184131354,0.305605292320251,-0.406252711955803,2.09051970592233
1.33,1.93673905050439,59.1681121195797,59.4057701636035,0.00910520948745386,0.397939172932252,0.384709715843201,-0.0885651674059903,1.88220153431039
1.34,1.99865506957439,59.1339506276226,59.4057701636035,-0.0674744631053503,0.347025563133106,0.300025224685669,0.410706288735336,1.65828372600891
1.35,2.06057560227505,59.1261642311776,59.4057701636035,0.0171283377133056,0.36329636972764,0.347027838230133,-0.131577062645185,1.85524068156231
