t,theta,omega,r,i_d,i_q,i_q_ref,v_d,v_q
0,0,0,197.959938909503,-2.24622110166683e-24,0,0,0,0
0.01,0.061178630477146,119.896338166417,197.959938909503,0.16067741445587,7.57606092044666,10,-1.04768183924552,18.3095841444911
0.02,0.242895714336224,197.22288198697,197.959938909503,0.0382937719819647,2.50339831051107,3.1599748134613,-0.495882156058159,9.69317377759317
0.03,0.449164273653293,196.957527168677,197.959938909503,-0.0686237883656689,1.26678624331641,1.3380526304245,0.148313545994908,6.21331553186244
0.04,0.655390435187027,196.973286147821,197.959938909503,0.0652109626082025,1.1409810930322,1.26134467124939,-0.681161526010839,6.58033077787589
0.05,0.861638653440715,196.981084128416,197.959938909503,0.0179289231894962,1.15545097940636,1.15254616737366,-0.419730051166559,5.9124236104846
0.06,1.06787827136703,196.966509799378,197.959938909503,-0.0478318506672763,1.33636460064174,1.3476470708847,-0.036791727609303,6.0335091395865
0.07,1.27413544550043,196.990660865848,197.959938909503,0.0252753349995118,1.09293005228611,1.20655488967896,-0.504004674910776,6.69051267495373
0.08,1.48041059526427,196.896691545287,197.959938909503,0.0750403667071954,1.17470137598111,1.1841813325882,-0.779140500562725,6.07378984631957
0.09,1.68665711682555,196.933038753936,197.959938909503,0.00723929558244296,1.15942886160349,1.22036564350128,-0.358285318652189,6.40782777064416
0.1,1.89292730689577,196.971592265914,197.959938909503,-0.0662695763880566,1.11052574008859,1.11707735061646,0.073645206762112,6.11738963886711
0.11,2.09919253495955,196.941473508897,197.959938909503,0.0449720067173686,1.22323820788571,1.22028791904449,-0.600175314974616,6.05724941186754
0.12,2.30545339470246,197.019453316922,197.959938909503,0.0553117186269434,1.13431921272637,1.16492068767548,-0.676136007931987,6.27111381659308
0.13,2.51172658273245,196.952478304054,197.959938909503,-0.100067193327624,1.18148842666844,1.22899484634399,0.286907192915021,6.39852749906602
0.14,2.71799152866735,196.951198820365,197.959938909503,0.0214910308122107,1.27508006175151,1.32337546348572,-0.446940228189495,6.39580045759356
0.15,2.92427713910558,197.00731465836,197.959938909503,0.0285298611400522,1.02809258421205,1.09267377853394,-0.504594340993194,6.49629516723196
0.16,3.13055200270404,196.953601418392,197.959938909503,-0.0363051797020847,1.22538710125933,1.24014687538147,-0.0943754317480945,6.193941658318
0.17,3.33682313506943,196.97087389492,197.959938909503,0.117966754544012,1.20296047161299,1.23893356323242,-1.0027676289998,6.3088399437983
0.18,3.54310864075048,197.033389198584,197.959938909503,0.0247827096989211,1.07940829987136,1.12058234214783,-0.427778491104057,6.35507111707242
0.19,3.7493723538022,196.959577041629,197.959938909503,-0.0203123364164183,1.24356961122147,1.24723410606384,-0.15354264306674,6.12646932434839
0.2,3.95564545808799,197.034794703116,197.959938909503,0.0357572796390114,1.14782843696139,1.19114410877228,-0.52131460455132,6.35731767826864
0.21,4.16192325302271,196.937804005673,197.959938909503,0.0535694069372349,1.18543195652487,1.19591534137726,-0.623748108085573,6.17601297839364
0.22,4.36819158080407,196.929335886911,197.959938909503,0.00963286482513792,1.2178266981939,1.21972393989563,-0.400576439000244,6.11312780502561
0.23,4.57447468407792,196.990171131238,197.959938909503,-0.0507795957152573,1.01144969290057,1.09403324127197,-0.0555458829366843,6.60207370954773
0.24,4.7807555691552,196.967283211139,197.959938909503,0.0537377047929529,1.22583040830506,1.19216251373291,-0.673139144704972,5.88720240920798
0.25,4.98702676380606,196.991197001548,197.959938909503,-0.052607710347707,1.17596522151862,1.22617876529694,-0.0428504154677325,6.38532280034167
0.26,5.19330434801078,197.009523046512,197.959938909503,-0.0174800552574582,1.20586586156809,1.19856607913971,-0.251522877045065,6.06158469600203
0.27,5.399574493729,197.010683300463,197.959938909503,0.0161887666100757,1.27389010816643,1.26903116703033,-0.432704616018505,6.06929034547468
0.28,5.60585235059233,197.070822894119,197.959938909503,-0.0126704086223499,1.18910854197369,1.19462645053864,-0.252651374315722,6.12753569524545
0.29,5.8121329970551,196.973333684675,197.959938909503,0.06249440295019,1.23261029886032,1.15913212299347,-0.723522282226172,5.65468700800147
0.3,6.01840214651134,196.968310487106,197.959938909503,0.109460414320529,1.24468801661484,1.27221143245697,-1.02109626905716,6.24399945568695
0.31,6.22468168038196,197.000913650471,197.959938909503,0.0394192639261311,1.15419715718298,1.15844440460205,-0.5955474705851,6.11864867796175
0.32,0.147763741128138,196.944476836903,197.959938909503,-0.111641320870664,1.22353730510536,1.23396825790405,0.321286782325522,6.15620862715801
0.33,0.354027923140983,197.048714215299,197.959938909503,0.104797344254866,1.24085973179308,1.29341304302216,-0.990495379451895,6.41538101042074
0.34,0.56030327215341,196.937444204034,197.959938909503,0.0610720248869056,1.14779938898952,1.12102055549622,-0.712156125193661,5.95854053251081
0.35,0.766567754309174,197.00368675653,197.959938909503,-0.0772687691526102,1.29138421956775,1.29252207279205,0.126203416390827,6.11727698407586
0.36,0.97285007668383,197.012970547193,197.959938909503,-0.0019828706163969,1.03052026207165,1.14104163646698,-0.350508881831151,6.768028174254
0.37,1.17913119243833,196.978824398326,197.959938909503,0.0490603706254398,1.21681760813413,1.22252714633942,-0.637222038505651,6.13727856106598
0.38,1.38539722160409,196.999602244386,197.959938909503,-0.0489228462769162,1.20351825716909,1.24073541164398,-0.0599286274011616,6.31813572315883
0.39,1.59167235274995,196.918410795991,197.959938909503,-0.097541696775572,1.09592293243565,1.15684568881989,0.221707053432415,6.47641440898108
0.4,1.79793702695294,196.965896545726,197.959938909503,0.052341347210072,1.25444570205678,1.27943241596222,-0.683580672557254,6.26284680860455
0.41,2.00420362814281,197.014087447979,197.959938909503,0.0256224073889187,1.13435746186578,1.16234588623047,-0.512398652355108,6.28305707839088
0.42,2.21048665978709,197.045134443253,197.959938909503,0.0469069756098932,1.29331278024936,1.24579632282257,-0.663607995192363,5.84028894360746
0.43,2.4167682922633,196.929748694212,197.959938909503,0.047806065239408,1.19154025293822,1.19551014900208,-0.663144788337344,6.12040638657644
0.44,2.62304449563357,196.979326336962,197.959938909503,0.00540352353666745,1.02547523332882,1.10477781295776,-0.375353885660796,6.58536980251733
0.45,2.82931444752284,196.980697891361,197.959938909503,-0.0501420876333989,1.25126660986285,1.28836131095886,-0.023407056391466,6.34198670769032
0.46,3.03559325691253,196.972480941745,197.959938909503,0.128267422886344,1.20724247611798,1.26104199886322,-1.10260087139552,6.41393518409066
0.47,3.24186614142188,196.966777895236,197.959938909503,-0.101358974980076,1.16502710650616,1.1635799407959,0.283219448599688,6.11092367127814
0.48,3.44813339036578,196.97924255825,197.959938909503,-0.0165273354131772,1.26389793045754,1.2761173248291,-0.225914737361392,6.18889661395482
0.49,3.6543999255454,196.954924704039,197.959938909503,0.0508624689402211,1.14704636692515,1.25480532646179,-0.651552115826796,6.7709830986626
0.5,3.8606877170555,197.018203815206,197.959938909503,0.0750925326153287,1.21419314426141,1.16305673122406,-0.777306832682098,5.81799455273035
0.51,4.06696028544877,197.057822406696,197.959938909503,-0.0727555877968796,1.3116505914572,1.28582417964935,0.105476396613963,5.94701929984795
0.52,4.27323759280469,197.010497366534,197.959938909503,-0.0220379947830075,1.05419408287354,1.15753626823425,-0.233254702514654,6.73880299255988
0.53,4.47952077142778,197.001814215884,197.959938909503,0.0569882305919724,1.23835118168952,1.23902201652527,-0.684007048297736,6.10552914132656
0.54,4.68579330363111,197.003507786858,197.959938909503,-0.0753781020095294,1.18706819992509,1.2296336889267,0.107060501499303,6.34739727707739
0.55,4.89207286690561,196.983249809485,197.959938909503,-0.0150376555669774,1.2077713336981,1.25043880939484,-0.271443249140605,6.36290135158646
0.56,5.0983462317476,196.992245680935,197.959938909503,0.0915318143318604,1.32147788969941,1.32420110702515,-0.883648280896774,6.10239329854596
0.57,5.30461389255743,197.039855997807,197.959938909503,0.0328613416798332,1.15480300687384,1.2109762430191,-0.535530681819938,6.43256004484246
0.58,5.51088855153782,196.965178604783,197.959938909503,-0.0631348272764846,1.20637879474665,1.21960914134979,0.0381946890182802,6.19015113461373
0.59,5.71715502534142,196.968391086321,197.959938909503,0.0352372695221911,1.18649659330745,1.25784838199615,-0.556642661370494,6.53235987835069
0.6,5.92343674363055,196.957646087152,197.959938909503,-0.00757370630696014,1.0489498564563,1.1235533952713,-0.295732009125575,6.56143993967708
0.61,6.12971079682135,196.939566141978,197.959938909503,-0.0855940845279387,1.21829673925988,1.22400879859924,0.182443085917262,6.14395912516046
0.62,0.0527977779536108,196.965550608778,197.959938909503,0.101716902304858,1.18459829149096,1.21265578269958,-0.969137093980602,6.26373628916663
0.63,0.259079240669658,196.942557407103,197.959938909503,0.0443486697485765,1.14794670557041,1.14647114276886,-0.631806671595997,6.09647154026221
0.64,0.465348125057261,197.01225763444,197.959938909503,0.0160321169220675,1.27613282898557,1.27194857597351,-0.464621984844128,6.06850266924867
0.65,0.671623576340886,197.046366101495,197.959938909503,0.00547994199987858,1.117116545671,1.19544363021851,-0.448007091146968,6.5677934189625
0.66,0.877899595526088,196.937773274044,197.959938909503,-0.0118972067326713,1.28932652329625,1.33526110649109,-0.329222217370448,6.3844594970712
0.67,1.08415650345576,196.990150534076,197.959938909503,0.0363677814101533,1.18082972107042,1.25717556476593,-0.58854774620728,6.57842779423456
0.68,1.29042753375544,196.97693779192,197.959938909503,-0.0994584108430429,1.10264836747188,1.15826809406281,0.218499182740886,6.47706033979897
0.69,1.49670406872922,196.963893716541,197.959938909503,-0.0749807867622285,1.29247871469411,1.23254990577698,0.112803818677829,5.76836748831774
0.7,1.70297265711368,197.02936205007,197.959938909503,-0.0193736126461747,1.20238173540837,1.24095690250397,-0.199476701543167,6.35894657334018
0.71,1.909262431273,196.992924058995,197.959938909503,-0.122720591163958,1.17470804722113,1.19703912734985,0.437756157706065,6.25968406854292
0.72,2.11552373949289,196.996149147568,197.959938909503,0.0165342260066127,1.32381443796517,1.27382755279541,-0.382457252018098,5.82573332790138
0.73,2.32181119246384,197.009374845405,197.959938909503,-0.00194599024168179,1.06594773782512,1.14675939083099,-0.27976936179871,6.60471695108329
0.74,2.5280913743543,196.998193014346,197.959938909503,0.0209537777782263,1.35595522233529,1.29495513439178,-0.434226478524543,5.75076865358794
0.75,2.73437644499961,196.977199260374,197.959938909503,0.0447197690302754,1.23986494464978,1.28256320953369,-0.567185494341425,6.33809874994433
0.76,2.94066865906911,196.998229940783,197.959938909503,-0.0374546596815019,1.04554409278532,1.09099781513214,-0.0539353877894143,6.35501386540242
0.77,3.14693586628237,196.93403140287,197.959938909503,-0.0450797341099495,1.22234292888397,1.20976805686951,-0.0056292589692602,6.00325628558424
0.78,3.35319585291171,196.977130655513,197.959938909503,0.092979523088046,1.11468113949128,1.24145817756653,-0.846821501596724,6.85751051738143
0.79,3.55947259428931,196.963489429248,197.959938909503,0.0764959565032351,1.2141066420852,1.2067996263504,-0.738677089848653,6.06770374158367
0.8,3.7657379408742,196.934978154195,197.959938909503,0.0481528365522568,1.19646064266878,1.24790680408478,-0.60473214873897,6.41423128037772
0.81,3.97201310627717,197.069412135651,197.959938909503,-0.0400216586732035,1.15630344306534,1.20252132415771,-0.110464126034965,6.39942882282654
0.82,4.17829190759282,196.937220284781,197.959938909503,0.0179734687907401,1.21462345163479,1.23861503601074,-0.438162448138731,6.25826247162247
0.83,4.38456444378654,197.008895893519,197.959938909503,-0.0278439433570061,1.21401658054844,1.26228821277618,-0.165798599015622,6.38757737502999
0.84,4.59085032886572,196.9498848928,197.959938909503,0.0232029429860999,1.09691626901957,1.13052260875702,-0.478652302174056,6.30969098088333
0.85,4.7971219863586,196.9807613078,197.959938909503,0.101139593732138,1.25175652574661,1.24978959560394,-0.927183837427424,6.08340186328561
0.86,5.00339386790289,197.063445472864,197.959938909503,0.0809432661942625,1.13016513344759,1.17701089382172,-0.792075314284158,6.37892126605095
0.87,5.20967258731984,196.976013434671,197.959938909503,0.0387298674891784,1.14622854217467,1.17588794231415,-0.535244893153271,6.28597903730265
0.88,5.41594317601566,196.98347406559,197.959938909503,0.0405331957769222,1.21673662521657,1.28413450717926,-0.545432023629449,6.49239106952611
0.89,5.62221493518523,197.064647450678,197.959938909503,0.0157863727132171,1.16350784689007,1.16819953918457,-0.422803837366622,6.1350892620384
0.9,5.82848373510329,196.975580603475,197.959938909503,0.0747883954915111,1.29245660193081,1.23740005493164,-0.769287428490648,5.78480047058764
0.91,6.0347608707147,196.969173162527,197.959938909503,0.0643977352867545,1.16310590568305,1.2246470451355,-0.732922656580319,6.46738430179728
0.92,6.24104210191567,197.052544536474,197.959938909503,0.0480661650336875,1.17399005685084,1.14123165607452,-0.612955993844302,5.92240317905224
0.93,0.164121960921918,196.930626358915,197.959938909503,-0.0759998015671117,1.24108574548147,1.24561643600464,0.144877995105614,6.14089846606665
0.94,0.370399014720672,197.042361302775,197.959938909503,-0.0488577505296927,1.09223977243244,1.20472478866577,-0.0572242902936232,6.78684264922896
0.95,0.576669708812158,196.941175853096,197.959938909503,-0.00908500202723717,1.25625269222177,1.18853914737701,-0.260644311910795,5.7251508914047
0.96,0.782941435118119,196.965738098731,197.959938909503,0.0575396356555444,1.12266091781135,1.16106176376343,-0.677784084323735,6.34684516945937
0.97,0.989218781420558,196.979608399967,197.959938909503,-0.0401107867459458,1.04021513872119,1.13455557823181,-0.103747301689206,6.70565198753236
0.98,1.1955021889545,196.988797654408,197.959938909503,0.0140065362178571,1.25678062445935,1.27473449707031,-0.401079358529926,6.22628923754268
0.99,1.40176911967048,196.927881355076,197.959938909503,-0.0133041276678476,1.14109149718474,1.20886600017548,-0.218575208907749,6.52783345180832
1,1.60805798757739,197.00888724969,197.959938909503,-0.029720190900789,1.2217102289521,1.184934258461,-0.132140155524806,5.90527059610347
1.01,1.81432487182828,196.997907443604,197.959938909503,-0.0182426750135804,1.32560701300405,1.26870083808899,-0.212497979862668,5.77154662398461
1.02,2.02060314603721,197.097416880474,197.959938909503,0.0301045439067511,1.12627642035212,1.18192064762115,-0.50093126721722,6.45129415548498
1.03,2.22687914515465,196.996273363658,197.959938909503,-0.0578056498672722,1.24160442646287,1.27937245368958,0.0178811912229782,6.34707597370296
1.04,2.43315068921813,196.964612345183,197.959938909503,-0.0222531532971559,1.15064414834099,1.1870368719101,-0.186824082455606,6.32501058562801
1.05,2.63944017492568,196.987760900052,197.959938909503,-0.0313003374088189,1.03409276900869,1.10750567913055,-0.137409199164953,6.55232386363507
1.06,2.84571192604639,196.951289878097,197.959938909503,-0.0654150133016545,1.22177589453657,1.19217550754547,0.066458780768106,5.92433691015283
1.07,3.05199343689895,197.0454336465,197.959938909503,0.103284927198065,1.13937440610004,1.21973299980164,-0.954664977922222,6.57126239928548
1.08,3.25826976330869,197.023486872461,197.959938909503,0.0842388371450862,1.21184659895417,1.1839451789856,-0.830344778683647,5.93785685113987
1.09,3.46453718776123,197.034904026813,197.959938909503,-0.0351257149944445,1.30172353862996,1.29641473293304,-0.10868093427837,6.06177122070737
1.1,3.67081398819674,197.027135842757,197.959938909503,-0.0256362466650616,1.13377467890301,1.17797303199768,-0.187498285070239,6.36753469429727
1.11,3.87708667708422,197.020164053476,197.959938909503,0.0283980714622828,1.22106300913738,1.18001174926758,-0.477878335336514,5.85911980365186
1.12,4.08334831600711,197.017775688992,197.959938909503,-0.0473663181598122,1.28229191062403,1.27457308769226,-0.0140853026572106,6.06210903733845
1.13,4.28963360934032,196.935713122928,197.959938909503,0.0134650579417871,1.20786469792324,1.16850686073303,-0.382623528810965,5.88378745031811
1.14,4.49590889161206,196.990007725182,197.959938909503,0.0358233207023189,1.24188997706714,1.22469961643219,-0.501685324401429,6.00527872027939
1.15,4.7021791599957,197.035672558602,197.959938909503,0.0969583605373079,1.13531770263265,1.2084686756134,-0.874122530490659,6.55304724743447
1.16,4.90846384538299,197.038924566263,197.959938909503,-0.102288803169427,1.22329260024589,1.24941778182983,0.324415718131534,6.27267578000076
1.17,5.1147320540664,196.960089154033,197.959938909503,0.0296316973107886,1.25215209731042,1.26114463806152,-0.474450592084668,6.15830664123438
1.18,5.32100451549925,197.018603702417,197.959938909503,0.00398487368527356,1.14069732237226,1.14633893966675,-0.312599598367607,6.15845069104324
1.19,5.52728041250579,196.979650677652,197.959938909503,0.0298089588394913,1.27868234859595,1.21870112419128,-0.501794021631709,5.76112248017913
1.2,5.73355092951695,196.991207051524,197.959938909503,0.133098160729989,1.20328969909514,1.25409483909607,-1.13123732588813,6.41683156968045
1.21,5.93983522454899,196.973344098121,197.959938909503,0.0170919269372866,1.1398405671172,1.1330109834671,-0.430462423140778,6.08030640963344
1.22,6.14609360140662,196.975433199994,197.959938909503,0.0346500887705891,1.24730294543868,1.25175857543945,-0.508149520475871,6.15332964311482
1.23,0.0691767735706357,197.031234163518,197.959938909503,0.0825227598482838,1.13729603454363,1.21780014038086,-0.823761464130315,6.62151772726464
1.24,0.27546777457238,196.948784621467,197.959938909503,0.0345236415443542,1.14700273275699,1.17313694953918,-0.514841016851421,6.28401377225463
1.25,0.481736606284521,197.02309329777,197.959938909503,-0.0225263166682863,1.27461321135199,1.25114500522614,-0.158890884740786,5.96923565927102
1.26,0.688028857517917,197.022145415454,197.959938909503,-0.0600178866654684,1.03920917440256,1.10580694675446,0.0493860777786209,6.50713846446564
1.27,0.894297552414361,196.979133309336,197.959938909503,0.114898973298055,1.24709316937933,1.24851512908936,-0.98536027359778,6.11575153100335
1.28,1.10056760507346,196.964269136167,197.959938909503,-0.00801059517617717,1.17325946735339,1.2409108877182,-0.23680226850663,6.5093595871057
1.29,1.30685006042913,196.956126908105,197.959938909503,-0.000994858356142214,1.14126569372316,1.1478750705719,-0.32488560341763,6.15958076107669
1.3,1.51312389551008,196.984711604347,197.959938909503,0.0988796044247987,1.25710101182346,1.26757121086121,-0.928235050135559,6.15945073975758
1.31,1.71939822852742,197.074808248141,197.959938909503,-0.00355419033987059,1.17744302013476,1.18223631381989,-0.317202112486657,6.13038091253012
1.32,1.92568287444479,196.97755293126,197.959938909503,0.0185486044584037,1.23857712709182,1.27892017364502,-0.44359392309947,6.34027251432891
1.33,2.13195829493804,196.984267239867,197.959938909503,0.000373362794750975,1.19001707656347,1.24588763713837,-0.343014934352023,6.41060079108058
1.34,2.33823436946354,196.963626836806,197.959938909503,0.0415244902311305,1.06643265514018,1.12035489082336,-0.58664924356306,6.42413871309014
1.35,2.54450487898251,196.936486253989,197.959938909503,-0.028417103875229,1.23128624912004,1.25138771533966,-0.146300478045008,6.21951600623783
1.36,2.75076863145439,197.048482358703,197.959938909503,0.120522975391071,1.22497974699596,1.2879558801651,-1.05285415844911,6.4842242067763
1.37,2.95705409135131,197.079421668886,197.959938909503,0.053161237347773,1.25360784592325,1.26357245445251,-0.627462770657864,6.17503304087608
