t,theta,omega,r,i_d,i_q,i_q_ref,v_d,v_q
0,0,0,121.293634695471,-2.31830788907768e-24,0,0,0,0
0.01,0.0641800447681947,125.500604788552,121.293634695471,0.161344951092855,7.66766620023241,10,-1.05399445835977,17.6776322015977
0.02,0.190850635943317,120.728035560789,121.293634695471,0.0639410419061972,0.873038142574851,0.880162239074707,-0.472980586794386,3.53239581166733
0.03,0.317238722709498,120.695015561216,121.293634695471,0.0216381932286635,0.744694892010144,0.744058310985565,-0.216092531776777,3.49752722652722
0.04,0.443616427553825,120.652477577209,121.293634695471,-0.0770113243464029,0.803468970326936,0.764386832714081,0.379501080362714,3.29933175138767
0.05,0.570017363832546,120.627965238237,121.293634695471,-0.0126036523353245,0.710746694097907,0.656082510948181,-0.00648545713232884,3.20418908741364
0.06,0.696408226001102,120.676890225783,121.293634695471,0.0118639088721239,0.685887726345896,0.7117760181427,-0.180005084187201,3.69308194682033
0.07,0.82280442794683,120.738961878335,121.293634695471,-0.0117237327627853,0.687852300554652,0.750317633152008,-0.0149849198130161,3.89448020622361
0.08,0.949195150139563,120.70720601345,121.293634695471,-0.0162949915932601,0.7270872985472,0.740983366966248,0.0168946899568713,3.59034716576701
0.09,1.07558234708336,120.682911148476,121.293634695471,0.00635857637061099,0.70401754185864,0.725596904754639,-0.104539178978046,3.64420534850062
0.1,1.20197655893394,120.674579613019,121.293634695471,-0.0244681912340646,0.731083424912827,0.714647889137268,0.0690526115548876,3.41738516728213
0.11,1.32836799182974,120.683563089207,121.293634695471,0.0478163562646737,0.732810805001488,0.71325147151947,-0.375920824617251,3.40962689113421
0.12,1.45475267031691,120.727228123316,121.293634695471,-0.000182129120812335,0.847758526857215,0.781907677650452,-0.0939369325810685,3.14591131024577
0.13,1.58114579035883,120.708602458665,121.293634695471,-0.0813352476463907,0.714197757679984,0.728705883026123,0.392189851426375,3.62056440538011
0.14,1.70752959900518,120.692903764504,121.293634695471,0.0451108006179305,0.696870815243994,0.720218479633331,-0.373353469655918,3.6693501301611
0.15,1.83392154807291,120.669515971122,121.293634695471,-0.0195515240936406,0.702064096839673,0.697165012359619,0.0142063215606826,3.49449090971253
0.16,1.96031815370885,120.711054916675,121.293634695471,-0.000710438507909805,0.71392427086343,0.711350977420807,-0.0986565558007564,3.51253777616422
0.17,2.08670389492027,120.676576713781,121.293634695471,-0.0204728695419638,0.818465251629848,0.78263795375824,0.0304260362494393,3.32871442582549
0.18,2.21308642343721,120.682863319574,121.293634695471,-0.0340840330335024,0.811988626966135,0.773552119731903,0.10713911053085,3.33302825822716
0.19,2.33948298139457,120.714423190908,121.293634695471,-0.0256865409638446,0.778088847479844,0.786552369594574,0.0443323109394415,3.60540790574671
0.2,2.46586789576379,120.725380586823,121.293634695471,0.00425204549609553,0.759030069063007,0.763205409049988,-0.143975203143686,3.57796511962767
0.21,2.59227239421591,120.697485962846,121.293634695471,0.0478952684548491,0.752171061647025,0.719940066337585,-0.40665222777364,3.33207624444979
0.22,2.71866971277711,120.668761080864,121.293634695471,-0.00338238538091654,0.755611507974592,0.70993959903717,-0.10526850381306,3.24003465046473
0.23,2.84505971257555,120.64925280275,121.293634695471,0.0234246440788186,0.683178459047191,0.689878344535828,-0.23605256323983,3.56736965991402
0.24,2.97146466685351,120.719588054712,121.293634695471,-0.0481808317727691,0.805511132216625,0.726105213165283,0.18051266458088,3.0407352797641
0.25,3.09784695647482,120.693804736499,121.293634695471,-0.0817218554155376,0.7836585764137,0.750114798545837,0.365255373941864,3.33639529809322
0.26,3.22424184546459,120.677919629483,121.293634695471,-0.0149117162724354,0.712723411297511,0.688229858875275,-0.032972310871279,3.38096882252281
0.27,3.35063635104372,120.664193581959,121.293634695471,0.024344961161144,0.749557702824619,0.727313458919525,-0.270456685280691,3.37407203547597
0.28,3.47702707225397,120.657279807655,121.293634695471,-0.0307904612371723,0.7493042967377,0.688395440578461,0.108196154397596,3.14051019083171
0.29,3.60341915365376,120.676500575458,121.293634695471,0.089224197757215,0.837039370925473,0.773288726806641,-0.616493418758895,3.12952207547402
0.3,3.72982372391628,120.666396079784,121.293634695471,0.0138037121798918,0.684171625265495,0.678285777568817,-0.141692040385831,3.4717994257853
0.31,3.85621146765373,120.705723041056,121.293634695471,-0.0103026918255922,0.801299703006112,0.742854416370392,0.00926080344745123,3.17293477435611
0.32,3.98260429296507,120.720871631046,121.293634695471,0.0384326792543611,0.690320704537524,0.701057076454163,-0.327891632192821,3.58543512781693
0.33,4.10898490966383,120.751602380318,121.293634695471,-0.018737996045204,0.70110271419442,0.756377995014191,0.0309285310856072,3.85350073290792
0.34,4.23538018989438,120.6713384459,121.293634695471,0.0120979639270456,0.702191084073644,0.744536936283112,-0.149331944145413,3.76236511020045
0.35,4.36177278010304,120.691572255982,121.293634695471,0.0668365351905119,0.814046756489342,0.766220390796661,-0.479197804452764,3.22351928946273
0.36,4.48817165335995,120.732771420926,121.293634695471,0.0891903399963766,0.825734900811225,0.740208506584167,-0.624677298493655,2.99830189768908
0.37,4.61456272911536,120.709928932295,121.293634695471,0.01389754779315,0.797756250156784,0.706563711166382,-0.168734265438383,2.98353877807732
0.38,4.74096189016757,120.715951680435,121.293634695471,0.00981076672903602,0.802570958055988,0.74780398607254,-0.155950745710851,3.19550581321385
0.39,4.86735332376587,120.701297788485,121.293634695471,0.00376066772774003,0.616895529981095,0.679720044136047,-0.151734528008457,3.8949415400315
0.4,4.9937380698331,120.639631657151,121.293634695471,0.0849639877100371,0.704143893833254,0.691196024417877,-0.599263899101903,3.4360364783315
0.41,5.12012716050148,120.716004042175,121.293634695471,0.0479416490567117,0.721228183740715,0.754432260990143,-0.372461286873251,3.71587014826753
0.42,5.24651395097377,120.683302608325,121.293634695471,-0.0195565921424983,0.817605775630537,0.756581366062164,0.0613020903298514,3.16294887635244
0.43,5.3729182323016,120.651047778086,121.293634695471,-0.00601887761975217,0.74178900410513,0.703097283840179,-0.0272229994796139,3.29131063542409
0.44,5.49930514840895,120.689909043048,121.293634695471,-0.037250314128882,0.725809633470425,0.735168993473053,0.142142824433731,3.59182191720662
0.45,5.62569600767816,120.691102088205,121.293634695471,-0.043408971973666,0.721270064096311,0.728138089179993,0.184845156036489,3.57678672498174
0.46,5.75208406623847,120.727657530739,121.293634695471,0.0883810287248645,0.733032495538835,0.741341710090637,-0.636201252121162,3.57864400888872
0.47,5.87846998383571,120.727701791638,121.293634695471,-0.00882333014092565,0.784887387811334,0.735869109630585,-0.014749151221804,3.23455811237004
0.48,6.00486772619125,120.674218063922,121.293634695471,0.0444360125374311,0.743544395940629,0.700812816619873,-0.33493946962286,3.27215671362504
0.49,6.13126071116723,120.737607236244,121.293634695471,-0.0420584461351863,0.826817026244048,0.738101124763489,0.181031143658819,3.00599278074076
0.5,6.25765630740379,120.657634646432,121.293634695471,0.0115188445165637,0.783373317142016,0.720219135284424,-0.155959739122846,3.16988346635937
0.51,0.100863432184768,120.665762169616,121.293634695471,-0.0431956595947544,0.656458185320122,0.687330782413483,0.14208896810469,3.73426925045141
0.52,0.227251342739741,120.698431167898,121.293634695471,-0.0623462411491373,0.692968032126179,0.71132904291153,0.240738144762762,3.65047829666438
0.53,0.353643719920494,120.650237135996,121.293634695471,0.12320714310803,0.700410842165496,0.697421669960022,-0.862389485565324,3.51422123753672
0.54,0.480033592187481,120.686890413244,121.293634695471,0.021604110603387,0.827920729678562,0.789360880851746,-0.235226269346197,3.3023726642377
0.55,0.606430463843855,120.723910756286,121.293634695471,0.00916137738773382,0.82941466286837,0.754349708557129,-0.155724992584252,3.08544624926245
0.56,0.732822190310875,120.687859992825,121.293634695471,-0.0380771130165999,0.782192523969569,0.696394205093384,0.120712151232351,3.02897883134263
0.57,0.859220240935179,120.742168711184,121.293634695471,-0.0160765623739505,0.808295591721346,0.744364261627197,0.00191678721080424,3.15407129856561
0.58,0.985614713963759,120.693548730175,121.293634695471,0.00751577897737121,0.664442638219101,0.681542098522186,-0.162113396655049,3.63012139197712
0.59,1.11199772675804,120.678333346521,121.293634695471,0.00240818210269846,0.657388616972378,0.723810017108917,-0.109454610921258,3.92450846637057
0.6,1.23838730844133,120.670123914741,121.293634695471,0.0411468998113132,0.73673162210437,0.688369810581207,-0.336699945340244,3.23256373944925
0.61,1.36477918363739,120.666320389539,121.293634695471,0.0787351536747161,0.810168330912777,0.781596183776855,-0.537330767564434,3.35735974889824
0.62,1.49117909222457,120.740084458401,121.293634695471,0.0416670840683172,0.826495526039372,0.736817836761475,-0.319339215362765,2.98898294662344
0.63,1.61757291260779,120.721950268217,121.293634695471,-0.0587477709740772,0.783513545228121,0.722086250782013,0.261323159453221,3.16572815174084
0.64,1.74396690735404,120.647679008686,121.293634695471,-0.0496813353833897,0.685598864031306,0.64105087518692,0.212115744388679,3.26509976623293
0.65,1.87035956915677,120.699117931159,121.293634695471,-0.0360422569631565,0.666127821843826,0.648179650306702,0.112276740391384,3.41339502607178
0.66,1.9967476009874,120.679394396996,121.293634695471,0.0541525611647752,0.676807119351203,0.714430630207062,-0.413199944953959,3.74157220739434
0.67,2.12314008946262,120.719016300803,121.293634695471,-0.0256879198236896,0.840918776336783,0.776831269264221,0.0835133222473741,3.13191214618189
0.68,2.24953246862423,120.664701020203,121.293634695471,0.0469501415715511,0.740523504004742,0.689461469650269,-0.36888424963451,3.2232098198037
0.69,2.37593459626911,120.738589558369,121.293634695471,0.0166418435128439,0.724579795086215,0.736110389232635,-0.201252001417292,3.59580100136995
0.7,2.502318671436,120.660524935989,121.293634695471,-0.0913453789091506,0.758331656603734,0.7098388671875,0.444397640025469,3.25109590160154
0.71,2.62871843097837,120.647807137581,121.293634695471,-0.109838539010009,0.652407539633503,0.659380853176117,0.569243239689919,3.56768812335228
0.72,2.75509720500291,120.679747808453,121.293634695471,0.0922461159255537,0.742056086248506,0.749253809452057,-0.656530246542119,3.57965919162991
0.73,2.88149238873253,120.695060141803,121.293634695471,0.0100810428821703,0.781161210952793,0.753017663955688,-0.14968713371536,3.36154734707925
0.74,3.00788750574252,120.710365594767,121.293634695471,0.0850833737551417,0.804820354137986,0.72691547870636,-0.577413770867987,3.06422951864213
0.75,3.13428367613658,120.693283704519,121.293634695471,-0.0165537201684196,0.811489785759695,0.734055459499359,0.0377910046830023,3.07038197893302
0.76,3.2606745463394,120.717097888445,121.293634695471,0.0358310508347567,0.807962656173724,0.735244870185852,-0.278753064686272,3.10701740026773
0.77,3.38706476099189,120.702224324378,121.293634695471,-0.0433596835440375,0.668103035681931,0.710881590843201,0.165805840696344,3.80682678190777
0.78,3.51345334839828,120.683808402995,121.293634695471,0.0274131489178023,0.636192194509522,0.701671540737152,-0.253193580078059,3.93609268365915
0.79,3.63984242554962,120.687278768703,121.293634695471,0.0634033166379898,0.710059219634623,0.763078510761261,-0.455429109735568,3.8545384368493
0.8,3.76623591985858,120.658803803418,121.293634695471,0.0285928637400248,0.777888528662119,0.73355495929718,-0.242470359808386,3.26799448615496
0.81,3.89263051284508,120.664321054541,121.293634695471,-0.0574746058020272,0.710790426518962,0.677823901176453,0.280150192916745,3.3412565594123
0.82,4.0190217823674,120.676425404886,121.293634695471,0.0228711744602639,0.810417887986,0.757376313209534,-0.188785131899147,3.22831929230635
0.83,4.14541635760154,120.727826335201,121.293634695471,0.0171288446617494,0.763153141101506,0.737371563911438,-0.168270618634273,3.39340325201949
0.84,4.27181123536422,120.734432877533,121.293634695471,-0.00233166875200429,0.627201834105425,0.674922049045563,-0.0630336825599368,3.823424388409
0.85,4.39820721845864,120.716271614198,121.293634695471,0.0135919725514667,0.648948113938902,0.668263852596283,-0.162432283070769,3.63430210822296
0.86,4.52459910269033,120.691464353486,121.293634695471,-0.0621203660552896,0.724556091386691,0.735361695289612,0.294189469942408,3.58043257841612
0.87,4.65098301549994,120.685394802621,121.293634695471,0.0311283009683277,0.824107792677315,0.788954973220825,-0.241249352575799,3.32555653231137
0.88,4.77738000418629,120.662524624207,121.293634695471,-0.0137506259714337,0.781000428909468,0.696876525878906,0.0224912295648003,3.02835986125351
0.89,4.90376819458989,120.70765812632,121.293634695471,-0.0274241486127305,0.759077888330493,0.778450131416321,0.0981734939751531,3.66363229328174
0.9,5.03016761109748,120.640027599813,121.293634695471,-0.0380938057898683,0.690409213951628,0.653603732585907,0.162781368335473,3.31332110221417
0.91,5.15655078706751,120.661297198531,121.293634695471,0.0160323693054192,0.637448778023177,0.713068604469299,-0.182750097009409,3.98765327969119
0.92,5.28294292849518,120.653487135757,121.293634695471,0.0565596120727361,0.670459384540599,0.702503621578217,-0.405768373590144,3.72059155235352
0.93,5.40933147433868,120.715699166339,121.293634695471,-0.0101969408425085,0.757276654187724,0.745516777038574,-0.0237313856516639,3.46635097503233
0.94,5.53572887911075,120.678923411399,121.293634695471,0.0185102026026737,0.811649173875366,0.747451305389404,-0.20557305333393,3.15494058083043
0.95,5.66212433758629,120.670019014434,121.293634695471,-0.0543281821099273,0.771807643050233,0.753507316112518,0.235444566529325,3.43578951737656
0.96,5.78851311699964,120.680647396157,121.293634695471,-0.0115089463378711,0.690106167855848,0.711856782436371,-0.0279651551161745,3.68530819727356
0.97,5.91490931589447,120.738389160872,121.293634695471,-0.0268120351586215,0.621489911248275,0.696312189102173,0.0598058813257381,3.99161649184941
0.98,6.04129625481356,120.711047154072,121.293634695471,0.0120645400191579,0.739445237565061,0.783271789550781,-0.174045968637001,3.7947367671519
0.99,6.16769002169403,120.665766237461,121.293634695471,0.0510841796320625,0.687428620829583,0.721273958683014,-0.395544219531982,3.73208387543526
1,0.0108994182173454,120.732031471141,121.293634695471,0.0523694251112437,0.828109006577638,0.746243238449097,-0.414107423173161,3.03963153524245
1.01,0.137307861706434,120.672908616373,121.293634695471,-0.0492457656519616,0.805115331098722,0.754862368106842,0.195156338469728,3.2162723897157
1.02,0.263691024971239,120.781978594898,121.293634695471,-0.0321886251379076,0.828495113085005,0.769827425479889,0.0959145968297618,3.18769480276675
1.03,0.390079071717647,120.697247041572,121.293634695471,-0.0581624802612204,0.695764040512072,0.670601546764374,0.231976384897834,3.39291445443582
1.04,0.516462946727406,120.65276148406,121.293634695471,0.0183713682528268,0.74710997207716,0.709199666976929,-0.207288268553301,3.31464728307714
1.05,0.642859078403909,120.681987423536,121.293634695471,0.058672639192495,0.75665327929698,0.746849358081818,-0.450128379157267,3.4750051172014
1.06,0.76924554231803,120.682479471775,121.293634695471,0.00327362365575862,0.822995299139973,0.766105115413666,-0.0931391937387937,3.20622389874802
1.07,0.895637106915226,120.61509083923,121.293634695471,-0.0233481920666518,0.905519926707099,0.849846661090851,0.0755560854088521,3.22761444798723
1.08,1.0220327218623,120.667328155785,121.293634695471,0.036609545363101,0.734998926630112,0.677779316902161,-0.287900978872663,3.22951994480543
1.09,1.14842989296165,120.687009579558,121.293634695471,-0.0534768225697885,0.669503169977462,0.698299705982208,0.271937914417741,3.73930833468835
1.1,1.27481980685683,120.759089182898,121.293634695471,0.0312510122047921,0.642173851909636,0.658173561096191,-0.269189366712356,3.65501093886515
1.11,1.4012154255203,120.742450429273,121.293634695471,0.0742010708521335,0.759117018285043,0.725519835948944,-0.515811029971829,3.34026969233615
1.12,1.52762234271065,120.725865674187,121.293634695471,0.025486404250123,0.72445400723949,0.73980724811554,-0.216109987035259,3.60765054964192
1.13,1.65400964301321,120.71660027399,121.293634695471,-0.0290304557008425,0.834585803777705,0.775367975234985,0.108620160437154,3.17012600096755
1.14,1.78040843684365,120.658248046766,121.293634695471,0.0275588721808676,0.681329192347748,0.687896430492401,-0.243106054863833,3.56480196958775
1.15,1.90679927189473,120.691249319739,121.293634695471,-0.0960601260323021,0.796798753335561,0.763654887676239,0.49673591912042,3.33501841573258
1.16,2.03319130355225,120.695287778947,121.293634695471,-0.0554501048048819,0.717835174447838,0.73538476228714,0.243415746755306,3.63542485141681
1.17,2.15957246700491,120.680469889596,121.293634695471,0.0785332625137134,0.720353868530559,0.717785179615021,-0.580773043681675,3.51884481524563
1.18,2.28596298496453,120.67061694565,121.293634695471,0.0167588192341282,0.800631607688428,0.782173097133636,-0.180135115695604,3.42060059627185
1.19,2.41236600708631,120.734981641151,121.293634695471,0.029415525638018,0.729933113051433,0.747816801071167,-0.25788403646767,3.63277740176888
1.2,2.53875572743221,120.712672528215,121.293634695471,0.0130462568413106,0.826178342432806,0.759868681430817,-0.147343474188098,3.1449043902046
1.21,2.66516196245979,120.727883853469,121.293634695471,0.00344349380217732,0.708124930263384,0.717732548713684,-0.102100254138848,3.59183924946646
1.22,2.79154889424195,120.676157894468,121.293634695471,0.0161814566272415,0.688212048917017,0.714427888393402,-0.171576954888586,3.69878985638557
1.23,2.91794900046165,120.607773851393,121.293634695471,0.00376636282423013,0.589397784549385,0.634002268314362,-0.0873474633731504,3.78578243264784
1.24,3.04433856397961,120.686686968214,121.293634695471,-0.00516148606445105,0.718625753102044,0.740586578845978,-0.0637801973964296,3.64491033813339
1.25,3.17073222302486,120.684484079361,121.293634695471,0.0288994299897381,0.753138341967464,0.697106778621674,-0.25647499093109,3.1807430674964
1.26,3.29712478126111,120.70088086366,121.293634695471,0.10256925930235,0.805435926187593,0.730668902397156,-0.706432942897875,3.07745592906638
1.27,3.42351988148058,120.647780630348,121.293634695471,-0.0147119984887574,0.709586852673373,0.635982155799866,-0.00296868215766645,3.09119759773134
1.28,3.54991237558389,120.763038753034,121.293634695471,-0.0351194263547925,0.812886695685059,0.756884038448334,0.126418421870332,3.20490343213375
1.29,3.6762977771933,120.69943453004,121.293634695471,-0.0594924143256473,0.704543665655239,0.714070498943329,0.264316142441348,3.60383358176136
1.3,3.80268567048781,120.715337267368,121.293634695471,0.0489027889307998,0.704707871799562,0.733337581157684,-0.392494390927486,3.70953757390135
1.31,3.92907938439828,120.669197646519,121.293634695471,-0.0415938687424328,0.707156573824357,0.714021623134613,0.169806127213774,3.57306064861324
1.32,4.0554703619211,120.730141685197,121.293634695471,-0.0037909750633467,0.735289063441594,0.743202686309814,-0.018640151372536,3.58938034346945
1.33,4.1818692464672,120.668441198367,121.293634695471,-0.000432762600226233,0.807441396801674,0.754576921463013,-0.0413580893448271,3.22682455715555
1.34,4.30826035856374,120.704131852441,121.293634695471,-0.0239247503670109,0.815429690162418,0.756669640541077,0.0972175764984349,3.20049244763116
1.35,4.43465206602597,120.736218646337,121.293634695471,-0.0153402529321931,0.781648672314034,0.766418039798737,0.0347327446733066,3.46958227275718
