t,theta,omega,r,i_d,i_q,i_q_ref,v_d,v_q
0,0,0,199.31091716709,-1.1803934928106e-25,0,0,0,0
0.01,0.0599087591411045,117.711763937884,199.31091716709,0.149268214547199,7.55906593584354,10,-1.01785716117201,18.4978460188681
0.02,0.240292350256038,198.002217305505,199.31091716709,-0.0684379572808295,2.42138098915678,3.02993822097778,0.0914618990459643,9.64192478007075
0.03,0.448000202234153,198.333712226248,199.31091716709,-0.0433494792630914,1.28183584373067,1.30568766593933,-0.041514771305838,6.11816375599289
0.04,0.655667140388068,198.346916546573,199.31091716709,0.0980789353961318,1.14073167669322,1.26892876625061,-0.93056818950238,6.75826172298395
0.05,0.863336531644734,198.266344185201,199.31091716709,0.00976918136585397,1.1394287374,1.16679227352142,-0.373116547503426,6.20182553064495
0.06,1.07099666035029,198.328420039876,199.31091716709,-0.100291418568233,1.25630497197747,1.27101922035217,0.30454505165612,6.13711115529904
0.07,1.27867610054757,198.319396299923,199.31091716709,-0.10922250809554,1.06148966240997,1.18121290206909,0.330466238217506,6.78453287860191
0.08,1.48635247944881,198.320314930082,199.31091716709,0.09230695895333,1.24832423230394,1.2424191236496,-0.828958261886731,6.0429376719074
0.09,1.69402355972867,198.373054450756,199.31091716709,0.0645382239735939,1.27689384174355,1.28779470920563,-0.673898458772239,6.14667267265068
0.1,1.90171878923594,198.285204033847,199.31091716709,-0.0706141361722559,1.11241949732404,1.15591621398926,0.119165919404769,6.34988127091874
0.11,2.10939732289146,198.299570495792,199.31091716709,0.075447202965044,1.24808386098192,1.23909556865692,-0.768066770908067,6.01634401943373
0.12,2.31707203983074,198.420575662024,199.31091716709,0.0105167245893765,1.16079519959422,1.23196566104889,-0.393507099409938,6.52039588953845
0.13,2.52475319348771,198.20167157979,199.31091716709,0.0636671437825648,1.31898196903854,1.28488385677338,-0.711172125397493,5.89610776397331
0.14,2.7324352650065,198.29639566892,199.31091716709,0.0316028186665203,1.22577622740793,1.27100157737732,-0.531690688705785,6.35322594884249
0.15,2.94012349761104,198.349192025337,199.31091716709,-0.0189544151149521,1.13635319620275,1.16139006614685,-0.205818844453493,6.24680641291681
0.16,3.14780274152226,198.357446990237,199.31091716709,0.0386801624384548,1.34614797365004,1.30048501491547,-0.532803510171817,5.81495971664852
0.17,3.35548696144558,198.374791279984,199.31091716709,0.0264196488831467,1.18128075887379,1.27752423286438,-0.480690870253591,6.66190595175619
0.18,3.56317422344957,198.277840641583,199.31091716709,0.0899249937011088,1.12051811719792,1.11680734157562,-0.877578292423616,6.07392277066445
0.19,3.77084208503935,198.367348892293,199.31091716709,-0.0353804596004606,1.25755345140563,1.25312471389771,-0.0962048629491749,6.06652941191744
0.2,3.97853086470759,198.410935324275,199.31091716709,-0.135803525109255,1.12646239423634,1.24032628536224,0.480721243287718,6.7880674922894
0.21,4.18620963545298,198.352379916149,199.31091716709,0.033063233668833,1.27414372196144,1.28102707862854,-0.49117497789662,6.13951018350626
0.22,4.39388897639647,198.352089816307,199.31091716709,-0.0232011893679318,1.21503232328084,1.21703314781189,-0.157099767767425,6.10169288430413
0.23,4.60158156192309,198.364625011244,199.31091716709,-0.112549636770759,1.15053993153532,1.1948401927948,0.380236227536219,6.3613201620786
0.24,4.80925784871922,198.316234924496,199.31091716709,0.105545487106408,1.21917310305602,1.24836826324463,-0.928209980917684,6.26051871685387
0.25,5.01694418243937,198.428886745487,199.31091716709,-0.0267707063685541,1.1336921950711,1.16761779785156,-0.144837998386449,6.29692944612326
0.26,5.22462572998346,198.308485113917,199.31091716709,0.0284645254547973,1.30334091146074,1.23596012592316,-0.466530868813001,5.69377555073462
0.27,5.43229800815912,198.330821993029,199.31091716709,0.0953317463234701,1.21185011531493,1.25466525554657,-0.862178366536346,6.35148615023435
0.28,5.63998132942989,198.236639807919,199.31091716709,-0.0260699591453187,1.03806919282738,1.022540807724,-0.130091207795806,6.02663628885638
0.29,5.84764176565037,198.308896164028,199.31091716709,0.0421912268824771,1.31113852114485,1.25908136367798,-0.53260621676817,5.81648881821792
0.3,6.05532784453961,198.383742056808,199.31091716709,0.0461575118249691,1.082679544769,1.15274429321289,-0.60056344106567,6.54499825423199
0.31,6.26301709292418,198.292417477019,199.31091716709,-0.0303757392935069,1.27137270515238,1.21137607097626,-0.110908576847352,5.76589537372647
0.32,0.187500890635672,198.362574298143,199.31091716709,0.00967351493776719,1.25292758314147,1.24399220943451,-0.381045770648585,6.06864992022985
0.33,0.395189145161488,198.390289461376,199.31091716709,-0.101460402763305,1.12223379315642,1.16394174098969,0.258299538145026,6.39026059764329
0.34,0.602875691585246,198.324706462468,199.31091716709,0.0176204527893594,1.22018397423255,1.2288966178894,-0.432150366176349,6.17087623820471
0.35,0.810556764294392,198.301988152387,199.31091716709,0.0694820763451927,1.06727486171376,1.13879668712616,-0.761694512226074,6.54575065470279
0.36,1.01825008826172,198.366295132583,199.31091716709,-0.0392208048395407,1.1932109514463,1.18568515777588,-0.116752001710209,6.07331616393303
0.37,1.22592887373157,198.266043915375,199.31091716709,0.0463757326607442,1.20217431639629,1.24000358581543,-0.647733947689682,6.32502956224049
0.38,1.43361785895473,198.384819636933,199.31091716709,0.00423453829652165,1.11461723609225,1.12619149684906,-0.361912494155511,6.18129582591737
0.39,1.64129633646335,198.26441425313,199.31091716709,-0.0756839350014556,1.17227952839229,1.19148516654968,0.130681506598485,6.22464764084229
0.4,1.84896691671002,198.377062199161,199.31091716709,0.0865216988111897,1.21201959576881,1.29582500457764,-0.850885488092503,6.61688284482795
0.41,2.05665666881933,198.346090400296,199.31091716709,0.00277378425269625,1.16521318799993,1.17029237747192,-0.338782455810596,6.15717900105722
0.42,2.26433780875106,198.293498501618,199.31091716709,-0.103840638833473,1.18415481145019,1.17438614368439,0.276947571991091,6.05196132600408
0.43,2.47203241657194,198.375167350606,199.31091716709,-0.0986966678656307,1.08566501185811,1.19451379776001,0.234666123320189,6.75411689795975
0.44,2.67970106713926,198.300970997315,199.31091716709,-0.039403910045065,1.34891998422737,1.29483377933502,-0.0997571257033522,5.79940673053203
0.45,2.88738098647211,198.311974130116,199.31091716709,-0.02568556891861,1.18517321764546,1.25696837902069,-0.19290431065476,6.53986648003552
0.46,3.09507329744361,198.348344730574,199.31091716709,-0.0150923297301795,1.11895265737796,1.135094165802,-0.254884642516146,6.22016347067711
0.47,3.30275686727168,198.283060056387,199.31091716709,0.0886233053822309,1.1884372158798,1.20341396331787,-0.884619376843392,6.19031368821305
0.48,3.51044381633026,198.440714990273,199.31091716709,0.0395581240957846,1.1365008194992,1.20290076732635,-0.590065748162558,6.49112262994343
0.49,3.71813742843954,198.342482496689,199.31091716709,-0.0254275620186742,1.19335404911966,1.21381449699402,-0.208067114576066,6.21255457501044
0.5,3.92581657471437,198.295680885947,199.31091716709,0.108484715614451,1.21095937675679,1.26190006732941,-1.01291983645488,6.37750356032379
0.51,4.13350845712136,198.388182989671,199.31091716709,0.0574583455840149,1.14543052915382,1.15678250789642,-0.691518738311702,6.15519181583274
0.52,4.34118196453747,198.30356150235,199.31091716709,-0.017975732121893,1.27310513217201,1.29454505443573,-0.219703008805222,6.22092139399405
0.53,4.5488654027566,198.373895652011,199.31091716709,0.097629363437769,1.09694236040713,1.19304072856903,-0.936867238958299,6.66190744427806
0.54,4.75655181048739,198.315006899644,199.31091716709,0.0124867542565798,1.23322482586576,1.23462224006653,-0.396893037443642,6.10210322276963
0.55,4.96421584301818,198.318669401994,199.31091716709,-0.0761129456585922,1.23459825475331,1.240274310112,0.145994557955339,6.13346265764175
0.56,5.17190257657497,198.33439607663,199.31091716709,-0.086757135458469,1.07228415501941,1.18969452381134,0.194826778978119,6.81618660384279
0.57,5.37957257742613,198.302533114166,199.31091716709,0.0290568660929463,1.26189327059071,1.28746271133423,-0.492775281001733,6.2815633252574
0.58,5.58725432192626,198.369374477609,199.31091716709,-0.00361115345397958,1.21204681165876,1.20106637477875,-0.291210914553253,6.04591761064334
0.59,5.79494416365276,198.28237834621,199.31091716709,-0.0676377156674165,1.13978509261853,1.18571615219116,0.0864130355006642,6.40349300972566
0.6,6.00262628999547,198.311636327985,199.31091716709,-0.00531584490811282,1.32101573325642,1.26144325733185,-0.27802933094815,5.74740468034723
0.61,6.21031260935033,198.340997757931,199.31091716709,-0.0110120435545325,1.09359624390485,1.14738273620605,-0.238596148931072,6.43316226705489
0.62,0.134804706119922,198.339514797561,199.31091716709,0.00671253079174616,1.25819853446577,1.27085030078888,-0.338797848277192,6.20085221087972
0.63,0.342486112768404,198.290873723712,199.31091716709,0.0782114507053593,1.20807689547917,1.25236105918884,-0.784012680626921,6.37685133452052
0.64,0.550184023824945,198.345619380607,199.31091716709,0.0391893134059711,1.11229752888897,1.12599289417267,-0.524984810391607,6.20256399560382
0.65,0.757864389486516,198.341332652946,199.31091716709,0.0488715060546102,1.23631807355825,1.26594603061676,-0.599586756494131,6.28165414041783
0.66,0.965543850627535,198.379598448888,199.31091716709,0.0292932018477638,1.1421528060023,1.24282717704773,-0.502264796245798,6.70736092405377
0.67,1.17322998335328,198.288574546778,199.31091716709,-0.0502357205116111,1.24440355213991,1.18567585945129,-0.00356145299772742,5.75825453272315
0.68,1.38090288143115,198.28511106804,199.31091716709,0.0158527060788594,1.20548790389825,1.22235691547394,-0.388367772260367,6.20512531437859
0.69,1.58859210827568,198.328963091553,199.31091716709,-0.11907058901976,1.10510668755215,1.22550225257874,0.392275014937755,6.84266579951957
0.7,1.79627363946278,198.310894067002,199.31091716709,-0.025592515122779,1.30056331206025,1.24492990970612,-0.175049423131961,5.77235297128341
0.71,2.00394701769197,198.345228692933,199.31091716709,0.0373542413172677,1.12886428374992,1.23784506320953,-0.549244248449675,6.76928543965207
0.72,2.2116350483246,198.346244453039,199.31091716709,-0.0805450842424886,1.16637960553651,1.21416175365448,0.150246215067724,6.41557462410651
0.73,2.41931145858222,198.294278675305,199.31091716709,0.117994849041523,1.20897019992134,1.27699398994446,-1.07450532223469,6.52012015643378
0.74,2.62700408943323,198.446676765939,199.31091716709,0.00627917805477141,1.13270043413836,1.14976763725281,-0.402527149522135,6.22090569150858
0.75,2.8346880386241,198.261992533247,199.31091716709,-0.0210316105929415,1.17157099249414,1.18732929229736,-0.219243871696497,6.20429202827144
0.76,3.04235390127865,198.364405407456,199.31091716709,0.0444886426599421,1.17580929640504,1.27333164215088,-0.599986979243817,6.70124761649703
0.77,3.25005234209247,198.283158228308,199.31091716709,-0.0243064207229848,1.05073181067918,1.08420526981354,-0.18078101313963,6.32010393950903
0.78,3.45772632082122,198.263329819229,199.31091716709,0.00543934375802313,1.19365231386123,1.21871590614319,-0.362750454019616,6.26165998079667
0.79,3.66541382383781,198.322979854538,199.31091716709,0.0257494256225151,1.05489068596728,1.16852021217346,-0.5195321261516,6.79873613618095
0.8,3.87310410085491,198.298797674823,199.31091716709,-0.0636560075993825,1.28212619033288,1.242959856987,0.059438308990328,5.87616895303119
0.81,4.08077594447257,198.339136080035,199.31091716709,-0.0163037815646103,1.25314325726469,1.27968609333038,-0.228113181913824,6.26778373520653
0.82,4.28847022713057,198.452431685868,199.31091716709,-0.0691850726695307,1.18873879439905,1.23032605648041,0.0749434624745092,6.36703092598417
0.83,4.49614569220632,198.306979425164,199.31091716709,0.0440791062908981,1.31243977796283,1.24532735347748,-0.596533412765977,5.70962938326455
0.84,4.70382569282488,198.373602250153,199.31091716709,0.0613720982971773,1.16330901988917,1.18239486217499,-0.681259949007571,6.2280821394439
0.85,4.91151399614614,198.329517909482,199.31091716709,-0.0193908080119269,1.21781885793904,1.20150625705719,-0.216767570483166,6.02229397369541
0.86,5.11919328963583,198.365985206466,199.31091716709,0.110915239691292,1.2513386254425,1.27224242687225,-1.01859504936817,6.22204361417825
0.87,5.32688261276516,198.379842524343,199.31091716709,0.0297819782109702,1.13090011963821,1.15655601024628,-0.517968564781542,6.26700555949032
0.88,5.53456445490136,198.348957742212,199.31091716709,-0.0411718593875717,1.33867360979938,1.2941153049469,-0.0701522171407695,5.83852843326984
0.89,5.74225261590504,198.321379766217,199.31091716709,0.0370552373809557,1.19316508543826,1.23730266094208,-0.558699233303588,6.35581895164618
0.9,5.94994931396753,198.36337139682,199.31091716709,0.0653325719691675,1.16898216415274,1.15528750419617,-0.719214863995813,6.0106823038849
0.91,6.15762107015177,198.335728838028,199.31091716709,-0.029027180626341,1.26585830568363,1.25400400161743,-0.153219480728299,6.01805095307841
0.92,0.0821151017688493,198.340710590397,199.31091716709,-0.0381717252556512,1.08813165966497,1.17192101478577,-0.127638978394981,6.61555842314635
0.93,0.289802355775855,198.336219253249,199.31091716709,-0.0434579215782209,1.31273667317167,1.25939130783081,-0.050827725680203,5.78737045026748
0.94,0.497477081955651,198.343583602807,199.31091716709,-0.0669651131586787,1.22541854217841,1.21387028694153,0.0963737853545562,6.03351867832691
0.95,0.705166520059528,198.314992143061,199.31091716709,-0.048750025484203,1.09592391571097,1.11896014213562,-0.0371837460477186,6.25916360413567
0.96,0.912845411749053,198.281934012598,199.31091716709,-0.0277393460054081,1.27560939693394,1.2234354019165,-0.16445218432497,5.78761041406567
0.97,1.12052296065002,198.412641590008,199.31091716709,0.016367212821638,1.17868144134103,1.21404719352722,-0.436587767183185,6.32187174494395
0.98,1.32820946023152,198.353246211319,199.31091716709,-0.0282834854545242,1.26301093385875,1.2962554693222,-0.17557358164163,6.31541844011032
0.99,1.5358959909501,198.313629401455,199.31091716709,-0.00129980924170531,1.17320678922179,1.22214424610138,-0.364978875214553,6.3798132377005
1,1.74358328649529,198.367794664487,199.31091716709,-0.011235520383079,1.13863769571523,1.14602327346802,-0.304923859805725,6.14709674211289
1.01,1.95126309036403,198.314013341868,199.31091716709,-0.00199214190526709,1.26041935467423,1.25386333465576,-0.329334617999794,6.05698367919638
1.02,2.15894267477684,198.3400027219,199.31091716709,0.03086558404551,1.12348344096829,1.2328222990036,-0.53286260636747,6.75928342340858
1.03,2.36662557451264,198.271612691605,199.31091716709,0.0654903160115451,1.23018079461177,1.24328446388245,-0.701170086213996,6.19980046527541
1.04,2.57430124491195,198.353874292993,199.31091716709,-0.0235266754084308,1.23095196648245,1.20623207092285,-0.167301697394929,5.95999237741945
1.05,2.78199156689788,198.416328125664,199.31091716709,-0.108146952842399,1.14128102546579,1.23981916904449,0.312767385521552,6.70844557215096
1.06,2.98967638509203,198.322001667219,199.31091716709,0.0102769636795645,1.31613902666818,1.26236319541931,-0.375037947072946,5.78446405934498
1.07,3.19735263009242,198.338834920133,199.31091716709,-0.00601520751939144,1.12929024425536,1.195885181427,-0.257912608221972,6.5066028368984
1.08,3.40503767077981,198.291996390899,199.31091716709,-0.0119490653186849,1.15769218888684,1.19591403007507,-0.219077135843515,6.35903217243056
1.09,3.61272231318729,198.291863148563,199.31091716709,0.0967822757273977,1.17065424878205,1.15348672866821,-0.879946062106237,5.99489725330082
1.1,3.82040202142324,198.402017176265,199.31091716709,0.0210080502965181,1.16434238579076,1.25055480003357,-0.440413666381102,6.63098454597547
1.11,4.02808213324344,198.299955609517,199.31091716709,0.00238270631579328,1.2374018780851,1.23023629188538,-0.298528375398586,6.07465679440558
1.12,4.23576517778894,198.346754667705,199.31091716709,0.0200173417986357,1.16233284019464,1.23369777202606,-0.414333044103726,6.52936793045604
1.13,4.4434507212202,198.375421275878,199.31091716709,0.0250811176709226,1.14032340575149,1.11886942386627,-0.461917826696496,5.99528345015693
1.14,4.65113132243409,198.340067161149,199.31091716709,-0.00215150282884252,1.23761220623517,1.25353813171387,-0.2915992862386,6.20332630115612
1.15,4.85881675886478,198.357983143816,199.31091716709,-0.0168040894552176,1.15514056338458,1.24439835548401,-0.245151030744669,6.63860630767121
1.16,5.06649182491709,198.284991317584,199.31091716709,-0.0772627481115304,1.33241250306577,1.29372584819794,0.141853590808291,5.88866978992452
1.17,5.27417768101722,198.348189394017,199.31091716709,0.0227794119374696,1.21845533409008,1.21780800819397,-0.450828146143364,6.09240714025721
1.18,5.48186162425466,198.377791155901,199.31091716709,-0.00541057933845801,1.17801131274124,1.16257619857788,-0.2896195929905,6.02458492314947
1.19,5.68954858242413,198.29647087363,199.31091716709,-0.000886309048752976,1.26406184443774,1.27052915096283,-0.323234006906201,6.13297153857782
1.2,5.89723396585191,198.43389371625,199.31091716709,0.0168761666361237,1.18072639281278,1.27231955528259,-0.444851344077391,6.63891182333147
1.21,6.1049228262913,198.305371637386,199.31091716709,-0.13162448321109,1.13585749275456,1.15021944046021,0.436641564766218,6.18908494931319
1.22,0.0294059901441983,198.294057611787,199.31091716709,0.0168840074730267,1.17229083282862,1.17082142829895,-0.429753496003989,6.0911240213575
1.23,0.237087180942105,198.386637135872,199.31091716709,0.0250359629942539,1.15832258153872,1.19688856601715,-0.476650251445632,6.35417068011925
1.24,0.444761365454596,198.322913785872,199.31091716709,-0.0657999153493833,1.31173692568992,1.25366842746735,0.0552369162401242,5.78554514948037
1.25,0.652451128850167,198.361392360912,199.31091716709,0.0204440795061986,1.12546308413956,1.20410513877869,-0.466794943842855,6.58287818015646
1.26,0.860150134253125,198.328074688029,199.31091716709,0.00627351697322265,1.16335999307745,1.18204760551453,-0.382197938185489,6.22444754865114
1.27,1.06781879421989,198.326279720099,199.31091716709,-0.0912069438785493,1.24367858779931,1.26843392848969,0.199336485140446,6.2589994468451
1.28,1.2755171808019,198.375418725818,199.31091716709,-0.0136211462048555,1.13389747206447,1.20089435577393,-0.298757034027373,6.50089887928468
1.29,1.483205362639,198.331385676187,199.31091716709,0.0379641787539633,1.26301047630467,1.26968836784363,-0.576422070372182,6.13408621570708
1.3,1.690869902466,198.337921459189,199.31091716709,0.0209571555878567,1.25103315318414,1.31364119052887,-0.484078512421218,6.48263897474203
1.31,1.8985602044668,198.303728138708,199.31091716709,-0.064994366663263,1.14629162089393,1.20890748500824,0.0360498547552032,6.49813571340524
1.32,2.10624689447318,198.327971088216,199.31091716709,0.0783867056834439,1.22108646186591,1.23427438735962,-0.823673038744881,6.17339622683196
1.33,2.31392667323051,198.347908018075,199.31091716709,0.0437938962908672,1.13377767695658,1.25596046447754,-0.620618626927347,6.83493631052277
1.34,2.5216153012512,198.293766312175,199.31091716709,0.091350926268095,1.2515035329057,1.19424724578857,-0.913738069409853,5.76441201513572
1.35,2.72928086138138,198.329349185186,199.31091716709,0.0644505231607063,1.15846022171318,1.14658093452454,-0.727112352664179,6.03995187801224
1.36,2.93696969923024,198.367622147365,199.31091716709,0.0623902357830752,1.14523496983527,1.17946803569794,-0.717314377692041,6.33753881272665
1.37,3.14465525591726,198.304794190208,199.31091716709,-0.062017674509407,1.18964957045475,1.16944742202759,0.0598304877229838,5.99523279041425
1.38,3.35234611608006,198.353700408414,199.31091716709,0.083650056207461,1.20720390290669,1.23146653175354,-0.829566322138205,6.2408192929208
