t,theta,omega,r,i_d,i_q,i_q_ref,v_d,v_q
0,0,0,322.349272689858,-3.30298410837773e-24,0,0,0,0
0.01,0.0598624232314756,117.394153550863,322.349272689858,0.195379611827806,7.49677843762549,10,-1.27273131607153,18.8909309342278
0.02,0.245104368003696,233.968215715407,322.349272689858,0.100176581331736,7.62799524752172,10,-0.977570060816508,21.5855944122356
0.03,0.543870835977733,321.029583290602,322.349272689858,-0.227244846635983,-0.884657851909762,-1.79335856437683,0.555752305605316,4.27459022100937
0.04,0.879486215227556,320.545054428511,322.349272689858,0.0309204649699159,1.87001284781316,1.89748227596283,-0.995020798229548,10.1876982897527
0.05,1.21520910870752,320.537576397966,322.349272689858,-0.0102094419427983,2.28695506342777,2.44138216972351,-0.769039098309687,11.1045064398629
0.06,1.55096262356509,320.815628422837,322.349272689858,0.062414104533287,2.15414532771862,2.28986144065857,-1.22191383329332,11.1098163094205
0.07,1.88678506413138,320.953169233542,322.349272689858,-0.0675667422437286,1.87182340606576,1.86860883235931,-0.463462078646837,10.3093947999959
0.08,2.22260061376169,320.583969862745,322.349272689858,0.00680298231637505,1.84937827605724,1.76487290859222,-0.910270056026511,9.83681150426219
0.09,2.55837455567353,320.519041116754,322.349272689858,-0.0152975971574245,2.23660634092539,2.32196116447449,-0.777302365787011,10.9158008935783
0.1,2.89415175087731,320.622142080361,322.349272689858,0.106065283630697,2.08169574113495,2.27368927001953,-1.53017658370294,11.6373410650831
0.11,3.22997459313753,320.909125673229,322.349272689858,-0.00380089255431282,1.93954169310737,2.03206181526184,-0.879477758824503,11.0667574956101
0.12,3.56582083371097,320.677351577908,322.349272689858,-0.103346110504989,1.83927929875985,1.72354340553284,-0.275448575513126,9.78412318022538
0.13,3.9016098501229,320.503442172351,322.349272689858,0.100690606552856,2.16625800859651,2.22561931610107,-1.50307477737038,10.8745757648332
0.14,4.23739968840206,320.673492916881,322.349272689858,0.00204952862478847,2.1096098403914,2.22928833961487,-0.912938163169574,11.283168695104
0.15,4.57323303320341,320.979585543911,322.349272689858,-0.0478862802754354,1.98135303476872,2.08413553237915,-0.628529606487586,11.1899123915359
0.16,4.90905864098679,320.771708152951,322.349272689858,0.0363350997404728,1.88342540106248,1.73925840854645,-1.11515108674383,9.71047488648253
0.17,5.24487103025551,320.491014212271,322.349272689858,0.0824129697282883,2.09819569820559,2.14653062820435,-1.38860129668567,10.8655035440391
0.18,5.58068744482903,320.637723938755,322.349272689858,0.0311999492699701,2.13794936809075,2.33036684989929,-1.07289356108241,11.7316255349093
0.19,5.91652020670794,320.953239596117,322.349272689858,-0.0569750973089572,1.96863300273968,2.08038353919983,-0.570790259229364,11.2547607588587
0.2,6.25236295869377,320.682057261722,322.349272689858,-0.0725107568083304,1.83061204736062,1.71676254272461,-0.448053369675093,9.88045482404231
0.21,0.304980055980265,320.501963967374,322.349272689858,0.0238639611193275,2.02178205328947,2.08961844444275,-1.03528681843446,10.9851218782764
0.22,0.640784530584016,320.646398057084,322.349272689858,0.0282780048568614,2.20057836187112,2.35868287086487,-1.0620716974119,11.5481320572869
0.23,0.976644268286274,321.010342773333,322.349272689858,-0.0235124998655972,1.99536514777138,2.07857370376587,-0.772493706886099,11.0578147781331
0.24,1.31249393901203,320.676392700408,322.349272689858,-0.096403012115193,1.7891456074213,1.6763356924057,-0.313660971761067,9.85653046069985
0.25,1.64828644395534,320.472109265869,322.349272689858,-0.00530849457863358,2.05690810464123,2.08410501480103,-0.861448637278856,10.7313847585425
0.26,1.98409457100311,320.577244515192,322.349272689858,0.0703491955590223,2.26449539409854,2.37981748580933,-1.33037982595688,11.2698328019629
0.27,2.31992688315481,320.956797813065,322.349272689858,-0.0173605974045654,2.03094785199754,2.1436550617218,-0.821767135199908,11.2591314773217
0.28,2.65578158456173,320.769972278849,322.349272689858,-0.0668419439230706,1.83834871176499,1.71088469028473,-0.52206627041416,9.7866884552723
0.29,2.99160341012568,320.4671770868,322.349272689858,-0.0194152732004041,1.95594518796002,2.00366115570068,-0.80773803977189,10.8289450050203
0.3,3.32739802153821,320.634185374225,322.349272689858,0.0150072942579511,2.23868843095567,2.323401927948,-0.988460809484703,11.0834488836326
0.31,3.66322788418058,321.014129303289,322.349272689858,-0.0519307297875653,2.00187697054665,2.07639956474304,-0.609939873258648,11.0258196960866
0.32,3.99907298027878,320.726208709298,322.349272689858,-0.027494601773479,1.76694794225826,1.58974635601044,-0.744077042818638,9.50002669179454
0.33,4.33490399736119,320.371876666239,322.349272689858,0.0545845424964332,1.85024607749459,1.90307331085205,-1.21532087401971,10.8581760824834
0.34,4.67068905279864,320.593682829308,322.349272689858,0.0441343742422134,2.21830040463299,2.31657886505127,-1.17468724466096,11.1741558150324
0.35,5.00650906737325,320.934130098461,322.349272689858,-0.0145908270345576,2.02169635144915,2.11325216293335,-0.829980667695464,11.1517570625473
0.36,5.34235656615848,320.76626868638,322.349272689858,-0.0558344130180676,1.82079338354183,1.74728238582611,-0.559012027012157,10.1419771672191
0.37,5.67818596991544,320.462627926934,322.349272689858,-0.0106332575635081,2.01684431652796,2.01291394233704,-0.824628056544525,10.5408704988401
0.38,6.01398693483262,320.626705209323,322.349272689858,0.0913931078234886,2.15766083182496,2.30645847320557,-1.43066428703248,11.4775035231036
0.39,0.0666104157903273,320.861861420037,322.349272689858,0.0843791707457731,2.14886763199265,2.20059990882874,-1.41024531525478,10.9297695348726
0.4,0.402460643740783,320.816097290508,322.349272689858,-0.00699042830866226,1.83947335866592,1.76923000812531,-0.873689463812958,10.1829244678777
0.41,0.738282056930316,320.463148107333,322.349272689858,0.0617938292739036,1.90754460200492,1.91426837444305,-1.28929463014644,10.6372991776014
0.42,1.07408021690816,320.56894718353,322.349272689858,0.0443963721185311,2.21279743423682,2.3299868106842,-1.16477056675223,11.3218211249918
0.43,1.40990360536949,320.893259087961,322.349272689858,0.104029790349145,2.1471481206187,2.19337034225464,-1.53783676639447,10.8987501490968
0.44,1.74577144368557,320.905783118442,322.349272689858,-0.110697672507779,1.82437760578407,1.75427675247192,-0.248902277541014,10.1541991362316
0.45,2.08158215913791,320.382810834626,322.349272689858,-0.0164299523137309,1.83147825650293,1.89543092250824,-0.800679959496654,10.9766429075428
0.46,2.41737980872802,320.5856874084,322.349272689858,0.0355575772152849,2.2216850080865,2.34163665771484,-1.12186475645571,11.3354401054318
0.47,2.75322069464948,320.875208565693,322.349272689858,0.0867326685784656,2.14351735657997,2.16066670417786,-1.42309669659946,10.6911718708146
0.48,3.08907706931954,320.919464492462,322.349272689858,-0.0712646748310662,1.86784237955601,1.87951898574829,-0.485793028724209,10.6302870158007
0.49,3.4249021781295,320.559916695702,322.349272689858,-0.034318153431197,1.84332192562248,1.77533149719238,-0.71599992592798,10.1498903771859
0.5,3.76070696123184,320.513057006751,322.349272689858,-0.00911367357406789,2.19733721150122,2.24276494979858,-0.860651452391895,10.838620847125
0.51,4.09651814382972,320.762510623162,322.349272689858,0.0268379449700349,2.14600051306676,2.23645210266113,-1.08684213806111,11.1328631044652
0.52,4.43237925301056,320.901941391846,322.349272689858,-0.0813918349588135,1.83300722449061,1.8284330368042,-0.430137378386043,10.5306047878532
0.53,4.76819400123674,320.476727969658,322.349272689858,0.00112727063420193,1.83327944287685,1.83702504634857,-0.923266657955838,10.5929602820481
0.54,5.10400169894036,320.567046422772,322.349272689858,0.032900079307258,2.23467727732763,2.32550597190857,-1.1134251848117,11.1238085406836
0.55,5.43981438205666,320.732040072427,322.349272689858,0.0899634182963788,2.13360093309225,2.29742336273193,-1.45205016856937,11.5777962105497
0.56,5.77565620467148,320.967844181396,322.349272689858,0.0514718652247472,1.94072038432226,1.94270002841949,-1.24086088966417,10.6029631617099
0.57,6.11150653820244,320.702358839356,322.349272689858,0.0140089092877721,1.87020388047121,1.6879289150238,-0.985517051940763,9.45340854300802
0.58,0.164143345464698,320.499981119984,322.349272689858,0.0457894899296095,2.10823250028339,2.13869595527649,-1.17763148550206,10.7166176866469
0.59,0.499942183104412,320.653036889935,322.349272689858,0.0468838031256327,2.15084501864905,2.33960485458374,-1.20274177442549,11.70654012779
0.6,0.835769710725188,320.893529513579,322.349272689858,-0.0105544503358899,1.89284767999611,1.88759434223175,-0.856058116700685,10.5629650123595
0.61,1.17161686962324,320.691608594127,322.349272689858,-0.127060824412891,1.83604263405408,1.69926249980927,-0.149586666693095,9.73968446085845
0.62,1.5074243923092,320.530205818156,322.349272689858,0.0712849756862051,2.16794121270839,2.18982100486755,-1.33273730029002,10.6970215362097
0.63,1.84322522082935,320.622552517387,322.349272689858,0.0673398336324368,2.08706220161049,2.26697492599487,-1.30497434724735,11.6773227527954
0.64,2.17906285999047,320.93438369967,322.349272689858,-0.0615633911634835,1.93859939006718,1.98573696613312,-0.544209850298208,10.8816774011252
0.65,2.51490956460679,320.763223475978,322.349272689858,-0.00549830193889511,1.84703067971154,1.65883588790894,-0.867215427725915,9.44037651292462
0.66,2.85071247718335,320.490291108197,322.349272689858,0.0643012610293848,2.12376308752793,2.12139129638672,-1.28436233666026,10.5748467172395
0.67,3.18651847512216,320.654549275172,322.349272689858,0.0932625961792739,2.12978044911835,2.27654719352722,-1.4512971334888,11.4905631826518
0.68,3.52235831049163,320.975741833229,322.349272689858,-0.0040263972344966,1.96669367204704,2.06752943992615,-0.867308757631102,11.2097659808897
0.69,3.85821776686169,320.749059600739,322.349272689858,-0.067848561552505,1.83276658145536,1.66768515110016,-0.479952440280183,9.56494065272587
0.7,4.19403006217495,320.450117049194,322.349272689858,-0.0612656463505373,2.01162109752161,1.99031639099121,-0.512448041240091,10.4314987232976
0.71,4.52984333212826,320.644524010777,322.349272689858,0.00960467642603424,2.20294240180712,2.35897183418274,-0.939611729498264,11.5010073676517
0.72,4.86569220447445,320.963551726305,322.349272689858,-0.0247186035194805,1.98493003315064,2.08839297294617,-0.739198000380052,11.1621460722562
0.73,5.20153041868527,320.69170152931,322.349272689858,-0.0988225998277523,1.7845761927235,1.66086184978485,-0.300583440283535,9.78823861317926
0.74,5.53733160842533,320.452388612455,322.349272689858,-0.0574026015986105,2.04803391334641,2.05639100074768,-0.546840718353197,10.6042843707773
0.75,5.87312538369163,320.620998927118,322.349272689858,0.0842875428729465,2.15004607722184,2.30576324462891,-1.39104292143114,11.519654919547
0.76,6.20895696401681,320.993541240461,322.349272689858,-0.0297589454504734,2.03910297929878,2.11892199516296,-0.72696424666532,11.0646128382244
0.77,0.261616765638028,320.75947703829,322.349272689858,-0.0465818132231755,1.84262053497038,1.78005194664001,-0.622961361783214,10.1951335060975
0.78,0.597422679190625,320.458574168713,322.349272689858,0.0422096661639709,1.95931742577119,2.03687620162964,-1.16078382981198,11.0579976831034
0.79,0.933224941738043,320.628275922579,322.349272689858,0.0197945845540961,2.28423061943771,2.35160350799561,-1.0120905718223,11.0152175845944
0.8,1.26906231306429,321.038546162284,322.349272689858,0.0496290197081294,2.13770235865375,2.17777037620544,-1.20531119748581,10.8413839263328
0.81,1.60491185070134,320.755333022808,322.349272689858,0.0315181957854822,1.84047440258018,1.71930050849915,-1.09596350558312,9.85197826591347
0.82,1.94074158811473,320.429981356887,322.349272689858,0.0772218333736802,1.91657428799196,1.9307781457901,-1.37657522763705,10.6437411130604
0.83,2.27653344967181,320.612619618798,322.349272689858,0.109558649493537,2.17834747225607,2.31320929527283,-1.57150567420207,11.4066471264819
0.84,2.61236594297194,320.979151294374,322.349272689858,-0.0265991608455944,2.03234829093592,2.08472514152527,-0.751273719527071,10.9110741899559
0.85,2.94821045918576,320.846812752075,322.349272689858,-0.143814521442326,1.82156556431044,1.75791442394257,-0.0364469993766343,10.1980883775626
0.86,3.28403677809143,320.413166064374,322.349272689858,-0.0678968896338165,1.84291719367812,1.87937605381012,-0.483647507819027,10.7857510183897
0.87,3.619829783939,320.573874978794,322.349272689858,0.0537918202171393,2.2587273798649,2.35114574432373,-1.20932138090641,11.1608492417151
0.88,3.95566339453475,320.984172618756,322.349272689858,0.0537945914137562,2.18941637289865,2.17871236801147,-1.22515254611705,10.5289334592058
0.89,4.29150478336971,320.848993655489,322.349272689858,-0.0765743999998433,1.81641346852968,1.70624136924744,-0.44315002469187,9.93328147201305
0.9,4.62733126857448,320.457743586588,322.349272689858,0.0533069499885402,1.85277019668459,1.85421550273895,-1.22096751546385,10.5931243545426
0.91,4.96314333403319,320.550501201217,322.349272689858,0.0317171451283528,2.23952225062927,2.33967041969299,-1.08182586173365,11.1841385866762
0.92,5.29897618542716,320.892824117193,322.349272689858,0.102709641690344,2.14917124698724,2.19058775901794,-1.51600374334435,10.8222318443858
0.93,5.63482209732718,320.918664251355,322.349272689858,-0.0475913531950652,1.8689998160671,1.79024684429169,-0.616691851348696,10.0921526460699
0.94,5.97064535295115,320.423380640151,322.349272689858,-0.0342913277488532,1.83679380113896,1.86794281005859,-0.670410636253599,10.7493710090415
0.95,0.023254783873238,320.589183663275,322.349272689858,0.0608641317871931,2.27350671097046,2.35434603691101,-1.25023397133435,11.0716982020536
0.96,0.359098154802808,320.859879597294,322.349272689858,0.0604746853389988,2.14810401014146,2.17838978767395,-1.26209218707766,10.7365744721311
0.97,0.694953627581349,320.832567941059,322.349272689858,-0.101810036967739,1.77003930386868,1.71888136863708,-0.284216395120027,10.223437685354
0.98,1.03078390705021,320.601330435703,322.349272689858,-0.0524617691221902,1.84687874037012,1.74129402637482,-0.579645632972024,9.88722757621409
0.99,1.36655859140198,320.594126639517,322.349272689858,-0.000163479133328814,2.28954543484479,2.3783712387085,-0.896784069623932,11.1197679911001
1,1.70238978850762,320.794638028292,322.349272689858,0.113261998917919,2.10687438215599,2.19166564941406,-1.58931558891072,11.0846476972825
1.01,2.03826509778755,320.961600005359,322.349272689858,-0.093734693344359,1.79200171527184,1.65853643417358,-0.344242476330015,9.71518392022858
1.02,2.37410121715092,320.605818166068,322.349272689858,0.00463902427193363,1.84622222345842,1.74472343921661,-0.92257860454035,9.88185449056229
1.03,2.7098933577783,320.541354152515,322.349272689858,0.0025471343441888,2.22538069367813,2.31323862075806,-0.904429618688132,11.0549032244447
1.04,3.04569558328569,320.818126696215,322.349272689858,0.0558340819957079,2.13210455621555,2.18168067932129,-1.23405725889089,10.8573053451484
1.05,3.38153267777766,320.963092430812,322.349272689858,0.0159450402366144,1.91153556421818,1.85459911823273,-1.02326870718656,10.2185183175144
1.06,3.71734650029463,320.60369411067,322.349272689858,0.0605165251318772,1.87574875494215,1.84056293964386,-1.28702348615063,10.371643197355
1.07,4.05314832564315,320.491554019247,322.349272689858,-0.0302300194309021,2.18050509621388,2.24241542816162,-0.741722671692092,10.9722520045444
1.08,4.38895996910934,320.651345168594,322.349272689858,0.0397618691958366,2.10024021429815,2.26279592514038,-1.17599002253945,11.5965804232972
1.09,4.72479032946003,320.929991622212,322.349272689858,-0.0344890247623692,1.9435462064922,2.02180051803589,-0.734549815494467,11.108489817375
1.1,5.06063215280425,320.536139699332,322.349272689858,-0.017591755209275,1.83337555002259,1.82163524627686,-0.834765472912294,10.5432143904774
1.11,5.39644973956072,320.466178832685,322.349272689858,0.0289662675593404,2.0259894204784,2.12096095085144,-1.1447277591075,11.1721636280032
1.12,5.73227369567397,320.646591317604,322.349272689858,-0.00965743487686277,2.15126529004952,2.31663036346436,-0.876839253769461,11.5833959629962
1.13,6.06813407960624,321.03742275234,322.349272689858,-0.028844438537268,1.99136928275692,2.02812051773071,-0.744665180652486,10.7751869113536
1.14,0.120793170246145,320.744184820937,322.349272689858,-0.0191119354912016,1.84567675976827,1.68676626682281,-0.783842257542453,9.58193421552446
1.15,0.456602010182912,320.437654268754,322.349272689858,0.00463376644949695,2.05822306387855,2.08188891410828,-0.935914225393014,10.6832342573739
1.16,0.792408848133029,320.622464856641,322.349272689858,0.0472677784187185,2.12819429292697,2.31287837028503,-1.17576796293774,11.66705368115
1.17,1.12823765157639,320.941830444226,322.349272689858,-0.0740421499366382,1.96921331369209,2.08480072021484,-0.45703412795829,11.2684800903028
1.18,1.46408416848846,320.71489554647,322.349272689858,0.00444035767325113,1.84971590549297,1.72348308563232,-0.927954791569032,9.79703677446167
1.19,1.79988795018802,320.44475855678,322.349272689858,0.0151401052702816,2.00797720087474,1.99507689476013,-0.993425018723849,10.5004550939278
1.2,2.13570154560048,320.623654013311,322.349272689858,0.0256676218860068,2.17604353497309,2.31892776489258,-1.07900441063414,11.440487593791
1.21,2.47154161435869,320.970644947186,322.349272689858,-0.0385513856300811,1.98850784736774,2.08326196670532,-0.704364004065755,11.1409371975972
1.22,2.80739796627481,320.761155154219,322.349272689858,0.00143999898840041,1.86052727110582,1.74795985221863,-0.936631077276262,9.86066129671368
1.23,3.14321412045076,320.43364736463,322.349272689858,0.0196371610127533,2.00323218659432,1.99240875244141,-1.03740249053832,10.4667211498372
1.24,3.47899977688571,320.638647422986,322.349272689858,0.0774491075205699,2.21125337212689,2.38333129882812,-1.39257835177515,11.6149918877735
1.25,3.81483398938063,320.977170657018,322.349272689858,0.00982353618185856,2.02840786044444,2.06045007705688,-0.991504891220208,10.7664117883606
1.26,4.15067442978883,320.769532642216,322.349272689858,-0.0593525098682303,1.84058280509359,1.77261757850647,-0.570000882161085,10.1592194271
1.27,4.48648672214157,320.432521213437,322.349272689858,0.000417826467457354,1.91686408006355,1.9205014705658,-0.930718839743759,10.5986265046644
1.28,4.82228113022457,320.589316915033,322.349272689858,0.106152787976876,2.25001814990828,2.35817050933838,-1.55686190212985,11.2599199043362
1.29,5.15812291803707,320.985342157169,322.349272689858,0.0283678974832633,2.10893768127479,2.17860126495361,-1.11814258874247,11.0057411578445
1.3,5.49397623337615,320.72520765753,322.349272689858,0.00386566121912779,1.81682590234281,1.70021331310272,-0.967441581892919,9.86330000536227
1.31,5.82980091141536,320.420055085848,322.349272689858,0.0322694786101506,1.88148434991086,1.94479751586914,-1.10364902367441,10.9354399049672
1.32,6.1656020299411,320.623716879115,322.349272689858,0.0712814476756296,2.28632654943741,2.41345047950745,-1.33522993225755,11.3385376430798
1.33,0.218259378956951,320.960962882817,322.349272689858,-0.0104828489309202,2.03874013164376,2.12792181968689,-0.854556048574843,11.0918788958846
1.34,0.554097465734849,320.843944775847,322.349272689858,-0.152363403177698,1.79672549825914,1.71303737163544,-0.00429848130737676,10.0507844724363
1.35,0.889913716212511,320.417030988908,322.349272689858,-0.0755276515068528,1.90140471008157,1.93074774742126,-0.45242902486442,10.7276446456217
1.36,1.22570750262333,320.586988711872,322.349272689858,0.151823923663793,2.2319569763547,2.32722568511963,-1.81345117422227,11.1562124116519
1.37,1.56152634061188,320.92301549785,322.349272689858,0.0290649522003714,2.07150080024344,2.14490127563477,-1.11008848446517,11.0436142614582
