t,theta,omega,r,i_d,i_q,i_q_ref,v_d,v_q
0,0,0,46.3949054004745,-3.38726183757752e-25,0,0,0,0
0.01,0.0389890670541258,45.8437450067539,46.3949054004745,0.0348815571916567,0.29990298174027,0.349617391824722,-0.234318817906083,1.66865015150426
0.02,0.0872929202718119,46.0650599861748,46.3949054004745,0.051082350683228,0.267620789875625,0.350353091955185,-0.328541593690046,1.9615482107464
0.03,0.135613498101928,46.1201473584733,46.3949054004745,0.0296939285928534,0.363648242594865,0.358309596776962,-0.248988321247116,1.48134349966911
0.04,0.183921552066047,46.1211282601246,46.3949054004745,-0.056374028666587,0.253194597715348,0.299708396196365,0.28926763425886,1.83365681028969
0.05,0.232249020456909,46.1657177570004,46.3949054004745,0.0178628637083249,0.326395372378788,0.323918879032135,-0.0869110584530637,1.58224599798877
0.06,0.280584650519454,46.139543614871,46.3949054004745,-0.0389890503560899,0.341744983013516,0.307135581970215,0.192114781819594,1.41047766222615
0.07,0.328902958312134,46.0941638366101,46.3949054004745,-0.049573762838405,0.236586836663143,0.265330404043198,0.289392014911515,1.81661296307855
0.08,0.377222892976227,46.1504408343808,46.3949054004745,0.00977014007818867,0.251160050559495,0.315737247467041,-0.0646091039897628,2.0825751025919
0.09,0.425560807641219,46.1525089889794,46.3949054004745,-0.0233140369927475,0.236771735022436,0.266123920679092,0.098503234267617,1.8936452425095
0.1,0.473889377702693,46.1918966144133,46.3949054004745,-0.00819008795732079,0.281772096892782,0.321137666702271,0.00793464510853458,1.95860197070264
0.11,0.522255206870153,46.1586771755335,46.3949054004745,0.000624609722347,0.159016079071809,0.109107226133347,-0.00258741893005542,1.39720499224737
0.12,0.570596219177068,46.131911197167,46.3949054004745,-0.00776976737519255,0.29805597807904,0.27297654747963,-0.00268021688777331,1.56013631017226
0.13,0.618924173410173,46.154357512723,46.3949054004745,0.00118133339051385,0.351545138049282,0.297661304473877,-0.0384483486786468,1.38987482431512
0.14,0.66725113038183,46.155461925622,46.3949054004745,0.00230985276345462,0.325031956660744,0.320923358201981,-0.0200501958333261,1.72402122875989
0.15,0.715590233421785,46.1769894788821,46.3949054004745,0.068121859310393,0.254746136706476,0.248721361160278,-0.425544332186028,1.73967954691
0.16,0.76392798227108,46.2045311818071,46.3949054004745,-0.0267497111223735,0.314645501465657,0.325651824474335,0.114138598350675,1.82757287065328
0.17,0.812282183234436,46.1825360004603,46.3949054004745,-0.0438432780171844,0.248875579988304,0.23724077641964,0.275991715478408,1.67300870754373
0.18,0.860641278272504,46.1268263216928,46.3949054004745,0.0109253976515177,0.171076231463718,0.198252588510513,-0.0950346267318397,1.90560267508978
0.19,0.908969882874079,46.1535576681261,46.3949054004745,0.0310915282535299,0.246422946232802,0.264224708080292,-0.224971051970411,1.85138232957578
0.2,0.957304185444023,46.1879226801672,46.3949054004745,0.106918870700258,0.328727712333484,0.34437894821167,-0.680481268022302,1.8522678621859
0.21,1.00565773695421,46.2358156266024,46.3949054004745,0.0947479367022803,0.227349354903957,0.22612452507019,-0.61766592134524,1.76674329375999
0.22,1.05399576181814,46.1359830025737,46.3949054004745,0.0172072081334867,0.287502286967267,0.232443556189537,-0.185826886403503,1.43108023045475
0.23,1.10233895674886,46.1909764521277,46.3949054004745,-0.0309503807563744,0.369732322341774,0.342034697532654,0.157152243086917,1.59558299102772
0.24,1.15070128523921,46.1480269177223,46.3949054004745,0.0385407256663139,0.240406811815595,0.266710460186005,-0.279563672804696,1.91533706001024
0.25,1.199038192723,46.1225609589152,46.3949054004745,-0.0279143242510267,0.285615326125158,0.236535385251045,0.108554980912225,1.45600723240181
0.26,1.24736657044428,46.1484398643527,46.3949054004745,0.12349536724124,0.333670609348367,0.330832242965698,-0.768623354367488,1.7444482561513
0.27,1.29570703895455,46.1530349888955,46.3949054004745,-0.0545266310359908,0.270417113677173,0.229136854410172,0.295779567702208,1.54757068539335
0.28,1.34404209002564,46.1964876934588,46.3949054004745,0.046384060035045,0.278386404637926,0.30041030049324,-0.31838176440377,1.93211646250599
0.29,1.39238734886039,46.2028957666421,46.3949054004745,-0.039604344822182,0.258696638649356,0.253563344478607,0.234061320643537,1.75227882744698
0.3,1.4407509229481,46.2333703250955,46.3949054004745,0.0681071154629026,0.28497600657732,0.282374978065491,-0.417002280042811,1.76287244370388
0.31,1.48910000540153,46.158471810909,46.3949054004745,0.00343628945789592,0.361598903555213,0.302125215530396,-0.0716186871055792,1.40570221536802
0.32,1.53743643535882,46.175228381511,46.3949054004745,-0.00472278890617545,0.278230104164541,0.326397776603699,0.022476656706328,2.05006489945324
0.33,1.58577350849656,46.1412341373529,46.3949054004745,-0.0948210715741062,0.271217684335856,0.284202963113785,0.564245869117941,1.8762974714286
0.34,1.63412574205884,46.1736532605556,46.3949054004745,0.0691436916398561,0.195551833238265,0.182281687855721,-0.440434627065947,1.70459741306503
0.35,1.68246041383497,46.1689553952154,46.3949054004745,-0.00268865267648316,0.314809796652761,0.297569364309311,0.0107161090545814,1.67607762108129
0.36,1.73082136743538,46.2179935360919,46.3949054004745,-0.0282756284140077,0.305301983424122,0.355942130088806,0.21819793407907,2.07751971541215
0.37,1.77917573117113,46.1437565327007,46.3949054004745,0.061485249773915,0.331970715413628,0.285834610462189,-0.385607805820816,1.48224073692306
0.38,1.82751335124569,46.1876816295174,46.3949054004745,0.0533777815103783,0.370615230528647,0.336766451597214,-0.311885913597183,1.54861234375741
0.39,1.87585181221475,46.1032174680798,46.3949054004745,-0.00189415438725185,0.288030391376402,0.262639254331589,0.0152565550791932,1.62997927558244
0.4,1.92419268019449,46.170873308996,46.3949054004745,0.0367861852716262,0.349821217618887,0.325009316205978,-0.221514656002985,1.64803960295915
0.41,1.97252726177977,46.1575724241958,46.3949054004745,0.0062504543087837,0.315003040724461,0.297798335552216,-0.040996152772526,1.69023181206137
0.42,2.02088141198658,46.1199491079278,46.3949054004745,8.67699195570984e-06,0.291712022213437,0.259758681058884,0.0496551909201671,1.59467041986442
0.43,2.06923497031769,46.1663947716631,46.3949054004745,0.0733959958439317,0.258244206085733,0.263034611940384,-0.449849005879138,1.80944291813753
0.44,2.11757670286718,46.1678969136802,46.3949054004745,-0.0444544276528035,0.322903149050103,0.294347405433655,0.276269066534847,1.59395158535587
0.45,2.1659176291806,46.1480278465069,46.3949054004745,-0.0386921621315623,0.28833497374805,0.316085010766983,0.229721603873377,1.94654375876842
0.46,2.21426640069907,46.1564778615292,46.3949054004745,-0.0173890175997979,0.331410411687052,0.312382847070694,0.0824792473492258,1.67919162376132
0.47,2.26261336190654,46.1547534236048,46.3949054004745,-0.0194942124547461,0.290921849526398,0.216355755925179,0.081064601465911,1.32201624972097
0.48,2.31096223520559,46.2205249476905,46.3949054004745,-0.0372773332030294,0.343542941763531,0.316010296344757,0.245752968775973,1.59494465183845
0.49,2.35932032929442,46.1939079950313,46.3949054004745,0.0569243961656894,0.26149321007024,0.257860451936722,-0.347948305400359,1.73411762490834
0.5,2.40765662003012,46.1525445031442,46.3949054004745,0.0107301452545819,0.356286958144723,0.315759092569351,-0.0789099497165434,1.50482662008151
0.51,2.45599111285542,46.1453388990217,46.3949054004745,0.111564432741434,0.27203173265742,0.283523410558701,-0.678316196569928,1.83596076859789
0.52,2.50434003368712,46.2424826919015,46.3949054004745,0.106547461295683,0.228213047290148,0.217204257845879,-0.657812094854448,1.7205153197034
0.53,2.55268989948113,46.0965619432143,46.3949054004745,-0.0117273307826338,0.274808567218626,0.2266566157341,0.0292893842221753,1.46844116460583
0.54,2.60103678045819,46.2435755473018,46.3949054004745,-0.0683949209362779,0.361173831631259,0.321580082178116,0.41823336237971,1.51250656149307
0.55,2.64940693510803,46.2565318931277,46.3949054004745,0.0731557369923574,0.40746952820689,0.341251194477081,-0.450127660923629,1.33377353675956
0.56,2.69774696864754,46.1302471493022,46.3949054004745,-0.0127483306661158,0.359772265552351,0.326839059591293,0.0476311912286563,1.52749817775726
0.57,2.74608190332315,46.1354523420718,46.3949054004745,0.0428619245717677,0.270251123876547,0.252452194690704,-0.245655445874772,1.62652055049354
0.58,2.79441714766114,46.1449159981081,46.3949054004745,-0.063721777263974,0.288494464542892,0.276753008365631,0.398781791254306,1.7084263501709
0.59,2.84275306914284,46.1273076829518,46.3949054004745,-0.0179075510506457,0.336287198632478,0.26817861199379,0.103279540776418,1.36748867026458
0.6,2.89110038512895,46.1898652252645,46.3949054004745,-0.0742514637023246,0.3326568840429,0.248871609568596,0.474951699231821,1.25647942056372
0.61,2.93945633179253,46.1773409477269,46.3949054004745,0.0616166007160208,0.257724302735488,0.253671854734421,-0.327434624307302,1.73668971363455
0.62,2.98780379729197,46.1837119608298,46.3949054004745,-0.0486045784729227,0.277838264417969,0.318102568387985,0.284475958541485,1.98701299215368
0.63,3.03613667303307,46.1292338526124,46.3949054004745,-0.0182014241993896,0.246516623136023,0.285138547420502,0.131684454077888,1.97579909125142
0.64,3.08447025622623,46.1389246574111,46.3949054004745,-0.0974463806578944,0.273238407013827,0.273656606674194,0.610314595375024,1.78856141406287
0.65,3.13281202661429,46.1422336783989,46.3949054004745,0.0042571135862565,0.309191242429831,0.281065344810486,-0.0219070279186126,1.61870044166339
0.66,3.18114822765905,46.1686849535369,46.3949054004745,-0.0931960028663109,0.343731858679436,0.303344964981079,0.583409908974128,1.54076976366826
0.67,3.22951126317522,46.1490083177821,46.3949054004745,0.0380680037935988,0.30340344725246,0.256322860717773,-0.166156520156284,1.49295348682324
0.68,3.2778692250562,46.1465256335523,46.3949054004745,0.0648297032716193,0.348569913298953,0.278060376644135,-0.389700228426813,1.33277272327974
0.69,3.32620662630377,46.1705147995212,46.3949054004745,-0.0969712309771675,0.215279516669444,0.227735698223114,0.608115327736749,1.82512539285429
0.7,3.37454211384851,46.2041162872194,46.3949054004745,-0.0275537311341387,0.24169162823936,0.300256878137589,0.157621624352399,2.13982863171771
0.71,3.42289163011762,46.1519709584249,46.3949054004745,0.0809743620671578,0.262047881364261,0.268320292234421,-0.50556390272448,1.82048795926069
0.72,3.47122757351793,46.1873542794922,46.3949054004745,-0.0613381752315757,0.332296508133149,0.288454562425613,0.357401245041385,1.51356341277349
0.73,3.51958513014745,46.1379294972952,46.3949054004745,0.00498350552389892,0.235867351973028,0.262683033943176,0.0171170491475766,1.92499810146795
0.74,3.56793287084307,46.1547279452402,46.3949054004745,0.0213314300024598,0.34755829748018,0.294938653707504,-0.122094663222403,1.4477252635331
0.75,3.61627161749096,46.1670828380575,46.3949054004745,-0.0221800092116487,0.303371249064186,0.2506323158741,0.151227667502849,1.43960054420841
0.76,3.66460219573486,46.1707656494543,46.3949054004745,0.00124530614446951,0.270143787669899,0.341174721717834,-0.00175006235725268,2.21729045930474
0.77,3.71293480008084,46.1634889050782,46.3949054004745,0.0690909728582871,0.260789931662896,0.278378576040268,-0.372733857288676,1.92379621189474
0.78,3.7612777422324,46.1663972508147,46.3949054004745,-0.0127704818956528,0.317915859208965,0.284291177988052,0.101353765622293,1.60051922384969
0.79,3.80963604814846,46.2151281875847,46.3949054004745,-0.0196112276943785,0.273994259294997,0.29968848824501,0.194597818576263,1.9444240261195
0.8,3.85799090065846,46.1160616508888,46.3949054004745,-0.00766917366489558,0.268476703088713,0.218498349189758,0.0695161696020545,1.48944329878198
0.81,3.906335264101,46.1552110281142,46.3949054004745,0.00274209482566348,0.316127066616081,0.297675788402557,0.0034810389809022,1.65734488770055
0.82,3.95467320767219,46.1937236538636,46.3949054004745,0.00839703055717969,0.279415258261874,0.336491823196411,-0.0217969508899355,2.1214637883215
0.83,4.0030040432373,46.1650677974173,46.3949054004745,-0.0583066673265537,0.339855433107869,0.289870768785477,0.390872165193965,1.51659945292626
0.84,4.05134875417354,46.1398672194525,46.3949054004745,-0.0234558749436278,0.35579250226954,0.296184152364731,0.150295040779204,1.43815704268903
0.85,4.09970564793439,46.2392577624033,46.3949054004745,-0.05762402821004,0.284737311217726,0.273399323225021,0.410260034358286,1.70239608587447
0.86,4.14806738480088,46.1662370844277,46.3949054004745,0.0524690785013033,0.253270905954472,0.279125422239304,-0.282827470140208,1.9179753933452
0.87,4.19639997767048,46.1560757406539,46.3949054004745,-0.0342413449383287,0.364156353110153,0.307807326316833,0.224248545171978,1.4240037154695
0.88,4.24474176810955,46.1371958181376,46.3949054004745,-0.034942057441297,0.194432865000694,0.228215038776398,0.254024758050933,1.96239433846464
0.89,4.29308590708078,46.110525503061,46.3949054004745,0.0176848614531427,0.223191725350353,0.231485396623611,-0.0837723744058315,1.8393741046607
0.9,4.34142611275391,46.1791647088835,46.3949054004745,0.0418467151711908,0.337000661216028,0.372291892766953,-0.262002403593892,1.99350354372359
0.91,4.38976987134208,46.1952699174215,46.3949054004745,-0.0128151289698554,0.253230111205017,0.260213941335678,0.10888929870772,1.81283017691779
0.92,4.43812109141964,46.2052687561867,46.3949054004745,0.00582538640236832,0.358675918518057,0.315233141183853,-0.00602531935865401,1.52434404966983
0.93,4.48647294694246,46.1530426239741,46.3949054004745,0.0179437229231129,0.246815261288531,0.255463033914566,-0.112590002351731,1.81603523364302
0.94,4.53481442318218,46.1565231943754,46.3949054004745,0.0579417115976036,0.302315185700893,0.301212012767792,-0.319343062955606,1.7518847254187
0.95,4.5831591698454,46.1142435649583,46.3949054004745,-0.0915024713063576,0.27200275031253,0.280516147613525,0.569534267858065,1.8366699703886
0.96,4.63149679590724,46.1546840699422,46.3949054004745,-0.0332333845834692,0.368330216442064,0.341802269220352,0.199881723397381,1.6254750449787
0.97,4.67983585213205,46.1568323020511,46.3949054004745,0.0171368617425726,0.293252193762083,0.266799986362457,-0.0760545102130921,1.62432498965119
0.98,4.72817864866645,46.1918978818523,46.3949054004745,0.0544072722141991,0.333727339029974,0.293759882450104,-0.289535037856118,1.56068037445041
0.99,4.77652653001197,46.132516306776,46.3949054004745,0.066857940169184,0.346648255699904,0.287556618452072,-0.415917818763568,1.43291250038076
1,4.82486658674303,46.1538235442535,46.3949054004745,-0.0513756822517342,0.255650507305995,0.275922209024429,0.34047684075547,1.89977724126542
1.01,4.87321533195972,46.1370942468285,46.3949054004745,-0.00242285682512629,0.178220274698262,0.202082902193069,0.042673946270652,1.93744969731546
1.02,4.92154911697526,46.2079229682538,46.3949054004745,0.00928630210928697,0.41144178239556,0.35733687877655,-0.0348690088517516,1.48359168434124
1.03,4.96990196359061,46.1410164696874,46.3949054004745,-0.00301432184032922,0.304947489926453,0.279528588056564,0.0394584292435005,1.62986373867887
1.04,5.01827010692291,46.194532825773,46.3949054004745,0.0240964708091696,0.192414088108305,0.21769767999649,-0.101720837010423,1.91626226254524
1.05,5.06662175319742,46.1388058896369,46.3949054004745,0.0239229488638192,0.247964808543553,0.282292097806931,-0.158868629803924,1.96100629974721
1.06,5.11495426169118,46.1044026565009,46.3949054004745,-0.0523294334172577,0.236337515322243,0.250519335269928,0.326873870857071,1.84026314860768
1.07,5.16330434026522,46.139732628916,46.3949054004745,0.026821081663038,0.180594808092724,0.230421915650368,-0.118322128780383,2.06208361112386
1.08,5.21164854065786,46.1087066832667,46.3949054004745,-0.0106350891889385,0.270591623350207,0.229367613792419,0.0952072511413849,1.52872255396845
1.09,5.25998948229591,46.1582528990283,46.3949054004745,-0.0072250246840905,0.319252869769912,0.304897964000702,0.0637624701164633,1.6779031980219
1.1,5.30834689571196,46.2339349715958,46.3949054004745,-0.0118305277856099,0.340780826731319,0.304758191108704,0.156197238361431,1.5355727037412
1.11,5.35669917953762,46.2015544311125,46.3949054004745,0.0344068330919123,0.318937700056,0.285219669342041,-0.161012881034691,1.55087619492156
1.12,5.4050402954214,46.1419581894326,46.3949054004745,0.00395714631417022,0.310507160632244,0.297692596912384,0.0152281312452293,1.66283539273243
1.13,5.45337598867483,46.1509305160231,46.3949054004745,0.100292286570895,0.272992627359998,0.311373770236969,-0.564849161498247,1.99085567987022
1.14,5.50171775647724,46.1520466162623,46.3949054004745,0.0286346349901792,0.288110263773939,0.237466737627983,-0.138844061586107,1.48146548027029
1.15,5.55005712639776,46.1178225943775,46.3949054004745,0.00418339688876744,0.285824128845863,0.247591018676758,-0.0319737592663425,1.53861998664686
1.16,5.59840909128626,46.2433558340969,46.3949054004745,-0.0499007737089602,0.351772857657395,0.305032342672348,0.345840487703227,1.47564881219714
1.17,5.64677025240815,46.1525026664719,46.3949054004745,-0.00264137004725441,0.288689402415545,0.231955096125603,0.0194362139277247,1.41210935507707
1.18,5.69510277275767,46.1257358051041,46.3949054004745,-0.00396662038272388,0.293118622314561,0.263284891843796,0.0101408558587319,1.5790000248213
1.19,5.74344723751156,46.1751177144147,46.3949054004745,-0.0540018685986066,0.197298329796273,0.206659480929375,0.364768224594741,1.80973039481549
1.2,5.79180802288213,46.1581177101723,46.3949054004745,-0.0427749041087985,0.303885028460953,0.298313975334167,0.265885708706987,1.72234404285284
1.21,5.84014775467482,46.1193512118379,46.3949054004745,-0.0635688139511299,0.339164737872956,0.277680218219757,0.371399695118158,1.37951730895742
1.22,5.88850350212903,46.1573233218377,46.3949054004745,-0.0636856718142776,0.17644133512842,0.124693110585213,0.414797736755578,1.41003542547438
1.23,5.93686401440201,46.1688873459095,46.3949054004745,0.00866105884069301,0.291019672264876,0.261739403009415,-0.0621611122480756,1.54573578720552
1.24,5.9852016754816,46.1450542253679,46.3949054004745,0.025191705213723,0.246783734464467,0.266743034124374,-0.184942098511851,1.84151575121814
1.25,6.03353638279753,46.1422432790453,46.3949054004745,0.0224170850229822,0.27570005502327,0.247724011540413,-0.1131454531999,1.55936300538752
1.26,6.0818670231469,46.1315779330675,46.3949054004745,-0.0265268127495554,0.236508697867525,0.278257757425308,0.168398374178274,2.02682782841031
1.27,6.13020165761736,46.1806276164357,46.3949054004745,0.0240671726294913,0.337920140006829,0.370443075895309,-0.17867494633316,1.97627380873425
1.28,6.17855096221166,46.1720629940967,46.3949054004745,-0.0773600883496508,0.334027237590449,0.26775398850441,0.470775652698751,1.3665173847001
1.29,6.22691652563462,46.2267746428041,46.3949054004745,0.0633253251928488,0.290525728102702,0.318064600229263,-0.352958168320911,1.91811625511379
1.3,6.27526328190985,46.1210778058863,46.3949054004745,0.0646010666869658,0.303856072034178,0.274898648262024,-0.416317006681286,1.57197598965142
1.31,0.0404115372760145,46.1794916713133,46.3949054004745,-0.0896026752004944,0.217319431282778,0.232590928673744,0.548663203312264,1.83916926056858
1.32,0.0887522723387946,46.2197091509244,46.3949054004745,-0.0445830992353732,0.32385103160432,0.32833868265152,0.270509888142777,1.80741097661944
1.33,0.137097317281975,46.1743400323613,46.3949054004745,0.0364449706144906,0.291379767095708,0.288424670696259,-0.24279322853374,1.76014264143667
1.34,0.185433904988517,46.1939707797987,46.3949054004745,-0.0465540067396804,0.287666110740015,0.321386069059372,0.272752979644969,1.9731516782978
1.35,0.23379311564516,46.1127006775683,46.3949054004745,0.0207317361655192,0.283062463539519,0.225488722324371,-0.0742090307542652,1.42096275901204
