t,theta,omega,r,i_d,i_q,i_q_ref,v_d,v_q
0,0,0,80.9251779999107,-3.33594435489951e-24,0,0,0,0
0.01,0.0550723704871981,80.1645502308278,80.9251779999107,0.0840938315267182,1.88830480052718,2.49285650253296,-0.60685968362132,6.14041230468678
0.02,0.139439373892028,80.488566971055,80.9251779999107,-0.0687397265112147,0.499931387030372,0.548384130001068,0.31520022976757,2.79659020093671
0.03,0.22373917017168,80.4810093106357,80.9251779999107,0.00738667360976258,0.399665760812457,0.474811404943466,-0.122774182363504,3.01052867069002
0.04,0.308048350118714,80.499234006673,80.9251779999107,0.0029986546696181,0.504394691781996,0.544482588768005,-0.0871173961922816,2.84063122600629
0.05,0.392350841901679,80.5112914350366,80.9251779999107,-0.0235939553196135,0.485954505446971,0.536219894886017,0.0715717275599267,2.96989147662967
0.06,0.476657112665974,80.5315880536179,80.9251779999107,-0.0950354311352982,0.516706152580425,0.494929522275925,0.537067121377287,2.55977017340992
0.07,0.560983171820883,80.5391165935243,80.9251779999107,-0.0529984704171534,0.547322933775654,0.538212358951569,0.301531056601473,2.66978043284777
0.08,0.645295891430568,80.557172568698,80.9251779999107,0.0133062195859538,0.552929061425733,0.56898432970047,-0.137302611501315,2.83190952768958
0.09,0.729618750553636,80.5119652565875,80.9251779999107,-0.0389830740171513,0.501501068983791,0.534502685070038,0.214476644100415,2.96967039360877
0.1,0.813944408726165,80.4463940289466,80.9251779999107,-0.00394174554273585,0.397477296438554,0.461403995752335,0.0117346406824289,3.15486376967568
0.11,0.898279964642435,80.4999255977696,80.9251779999107,-0.0513543487236588,0.440414697041958,0.472460836172104,0.275768011274698,2.9624206700942
0.12,0.982597895537452,80.6184344450088,80.9251779999107,0.00333246019435085,0.464851930732687,0.536429762840271,-0.0712131215982203,3.23067264513489
0.13,1.06692726055707,80.5435663998156,80.9251779999107,-0.0454103180890952,0.486901023119591,0.538227617740631,0.234909551213665,3.10120437869233
0.14,1.15127229281033,80.5913041992148,80.9251779999107,-0.0326364597430868,0.419753104581497,0.424739211797714,0.145051930195832,2.82170410245398
0.15,1.23559607452795,80.533076376665,80.9251779999107,0.0323137104871585,0.458184988262364,0.522943913936615,-0.252735410007554,3.1703078385471
0.16,1.3199241106544,80.4809630885403,80.9251779999107,0.00759987756465884,0.395086982904431,0.432456344366074,-0.0872044387571477,3.03577065300203
0.17,1.40424501492824,80.5620626146478,80.9251779999107,-0.051708306741026,0.542969736904937,0.529531896114349,0.288084832779481,2.72789107011122
0.18,1.48859178698054,80.5209767007644,80.9251779999107,0.0217205842495906,0.443789140297546,0.469045788049698,-0.163390648465339,2.95409629887066
0.19,1.57291898485231,80.5554499101149,80.9251779999107,0.020992886552679,0.43643083422707,0.510171890258789,-0.181411772338321,3.2533020495843
0.2,1.6572407142524,80.5902084515955,80.9251779999107,-0.0247170191737591,0.553792643829372,0.52856832742691,0.138920194769794,2.66285762773176
0.21,1.74159428741878,80.5569873191595,80.9251779999107,0.00500209922754236,0.435788294282433,0.462391257286072,-0.0552447238304985,2.96095923058481
0.22,1.82592074263997,80.5388276883689,80.9251779999107,0.0709651044950909,0.484219449829646,0.474249839782715,-0.474467949578633,2.72451256778381
0.23,1.91024605783114,80.5200667235194,80.9251779999107,-0.0852010912107812,0.471342654914257,0.493741482496262,0.475415007775224,2.95268898382111
0.24,1.99457532406037,80.4860354751126,80.9251779999107,0.0206154186881319,0.415665493896461,0.475237220525742,-0.14022699832127,3.16033124346311
0.25,2.07891691818648,80.5329679416573,80.9251779999107,0.0346958407345918,0.499651823570046,0.491894632577896,-0.24295411131378,2.76189250639455
0.26,2.16324441228093,80.5629760990059,80.9251779999107,0.0157558647103413,0.433280747511123,0.491987496614456,-0.16705469232488,3.15959629540693
0.27,2.24757975420727,80.512762674098,80.9251779999107,-0.00254286414762845,0.507019410048135,0.513353526592255,-0.0333660177372817,2.84165909242465
0.28,2.33193642752583,80.4574584874231,80.9251779999107,0.0130059414998341,0.379781943829192,0.385479629039764,-0.103737380154299,2.81748941504422
0.29,2.41626637216251,80.5416210440163,80.9251779999107,0.0838603943445143,0.530532684670855,0.533174991607666,-0.551864529240049,2.79399092177855
0.3,2.50060562722044,80.5657028061067,80.9251779999107,0.00185119133448079,0.548968953079545,0.551763236522675,-0.0600101554301817,2.80813870129544
0.31,2.58493383194551,80.5476088141475,80.9251779999107,-0.0456630092968565,0.502232988072133,0.453879773616791,0.258007103256985,2.48477001191911
0.32,2.66927334431265,80.5114221017516,80.9251779999107,0.0513726689794408,0.445186219842728,0.475008606910706,-0.333011683326769,2.96605271101053
0.33,2.75359455573391,80.5462287157309,80.9251779999107,-0.0349579115646518,0.443869341345723,0.495087474584579,0.15281074732308,3.09479626313378
0.34,2.83792218911057,80.5074937712788,80.9251779999107,0.0634267019698169,0.443256208009558,0.472156941890717,-0.414023347497379,2.98434603143386
0.35,2.92225341894311,80.5056378026636,80.9251779999107,0.0184798180725036,0.397962526628695,0.441152989864349,-0.139384281529567,3.07226873804278
0.36,3.00659557190303,80.5177116358839,80.9251779999107,0.0845110785421423,0.498754114531486,0.506939709186554,-0.559096159502074,2.83974848634461
0.37,3.09094172484607,80.5631495867637,80.9251779999107,0.00852409650522284,0.502882498783913,0.498846113681793,-0.11405056488705,2.75961650319383
0.38,3.17525478401504,80.5080163881892,80.9251779999107,0.0455910750092083,0.488555449637236,0.543551743030548,-0.315784561250716,3.12233877121825
0.39,3.25959650750249,80.5401678637684,80.9251779999107,0.068162993795722,0.457701936805712,0.475760042667389,-0.468568452072694,2.90907251320209
0.4,3.34392373273128,80.5509761233526,80.9251779999107,0.00733659650999723,0.507438107196983,0.501349151134491,-0.124607107469039,2.75054383756347
0.41,3.42825796164961,80.4862063416189,80.9251779999107,-0.0282373858941433,0.433613801045484,0.485577374696732,0.113541357478498,3.1192885287384
0.42,3.51259966197845,80.6598763663035,80.9251779999107,0.00446841874031997,0.443958991631289,0.437376469373703,-0.0626377075917387,2.75772878346611
0.43,3.59694374529503,80.5499907184258,80.9251779999107,0.0815502429313278,0.532361131746263,0.512670576572418,-0.53219601774813,2.6584499774454
0.44,3.68128932060558,80.573332028704,80.9251779999107,-0.00346833375684208,0.503186948601282,0.528368175029755,-0.0359279463670057,2.92094810991457
0.45,3.76561561339409,80.5403889062605,80.9251779999107,-0.0996058042977042,0.479557017479378,0.521471619606018,0.57695470215546,3.01577244477403
0.46,3.84996074547895,80.6265765380853,80.9251779999107,0.0557339537597326,0.603429429079201,0.600966274738312,-0.364640431025783,2.75781658318097
0.47,3.93428093292918,80.4755528639126,80.9251779999107,0.0703845179364976,0.431742746744791,0.524897992610931,-0.483327532441557,3.32878660897899
0.48,4.01861213962822,80.4969919991943,80.9251779999107,-0.0794921776044326,0.477899879981543,0.496999174356461,0.427176047922886,2.91001011714245
0.49,4.10294940356082,80.589320647848,80.9251779999107,-0.0134845483965178,0.428898139436578,0.400301247835159,0.0589797761839855,2.60008914750071
0.5,4.18728390035041,80.5318597295024,80.9251779999107,0.0401535246269586,0.550011089443562,0.563567459583282,-0.27210277328397,2.85064189842528
0.51,4.27160568732607,80.5380009969421,80.9251779999107,-0.0172563524835481,0.43046482501911,0.47277507185936,0.0440213731626376,3.04689266305632
0.52,4.35593051987635,80.5369103954836,80.9251779999107,0.01777651615436,0.553269608925659,0.578341841697693,-0.154463312237215,2.94002483510793
0.53,4.44027244918962,80.4999148405577,80.9251779999107,0.0100925049581564,0.49851803986689,0.513994038105011,-0.101211630178233,2.88864976402559
0.54,4.52459679770805,80.5293137286649,80.9251779999107,0.0141687995307811,0.509571245032823,0.513364195823669,-0.150185154056042,2.81001803960064
0.55,4.60893956963015,80.527754540339,80.9251779999107,-0.0448342778387312,0.481853677041468,0.468595921993256,0.188728601452961,2.7197376794443
0.56,4.693267198949,80.5265256132792,80.9251779999107,-0.0271533728884583,0.49420658030735,0.564881026744843,0.0951619068155024,3.21224396664219
0.57,4.77760311717473,80.5352743526962,80.9251779999107,0.0201931608898274,0.537712414499688,0.518859386444092,-0.198171688889347,2.69128853559357
0.58,4.8619227704948,80.4945412408584,80.9251779999107,0.0139292897030273,0.405569320351295,0.484716445207596,-0.179829157164311,3.29699895225554
0.59,4.94625217915094,80.555054366978,80.9251779999107,-0.0113423287390735,0.470889411072808,0.516504526138306,0.00791071370172865,3.09390374594793
0.6,5.03059065839022,80.4736349399442,80.9251779999107,0.0177180522588489,0.384601960710329,0.392131090164185,-0.147687415109495,2.86430386905273
0.61,5.11492252996453,80.5636889270781,80.9251779999107,0.0327029442694005,0.521393524280544,0.544873774051666,-0.240862215029717,2.94469685800584
0.62,5.1992443945116,80.5477706161517,80.9251779999107,-0.0801859337166724,0.511184365500936,0.5160151720047,0.443685546849427,2.86998532269686
0.63,5.2835693671018,80.4996066523289,80.9251779999107,0.0274656522611942,0.431901069430664,0.46071195602417,-0.192845296335371,2.99972584530335
0.64,5.36791662064684,80.5164190671768,80.9251779999107,0.0408504563721772,0.488273216955117,0.478679150342941,-0.296663891496305,2.76802334197372
0.65,5.45224804711385,80.5768207888235,80.9251779999107,-0.021930761332583,0.428820233654187,0.439172714948654,0.0512482035707383,2.87546871838717
0.66,5.5365766863671,80.5375140298188,80.9251779999107,-0.040390609484699,0.521194035580808,0.533696353435516,0.194660611420122,2.90312084758753
0.67,5.62091143576543,80.5045227234063,80.9251779999107,-0.000379856142428289,0.419992595587939,0.495477080345154,-0.0467877517265372,3.28407674786859
0.68,5.70525018371129,80.5465290004039,80.9251779999107,0.0324389891816187,0.511169322849586,0.507414638996124,-0.25224182699347,2.78396886089318
0.69,5.78958825044524,80.5679164186713,80.9251779999107,-0.0174237908667247,0.493263107601511,0.476388096809387,0.0308485825789249,2.71783021859809
0.7,5.87391515240331,80.5525080369151,80.9251779999107,-0.0498246398957021,0.515531656074718,0.490143686532974,0.284115053312002,2.6552657805864
0.71,5.95825745156891,80.5664601459753,80.9251779999107,0.107574701289924,0.441034383640935,0.466072678565979,-0.686682653423025,2.97463336890562
0.72,6.04258199108777,80.5873163102777,80.9251779999107,-0.0575399283951292,0.457326529640625,0.485948264598846,0.2735034731102,2.99061287949677
0.73,6.12691565870999,80.4973142555308,80.9251779999107,-0.0536484381626721,0.483320988354606,0.479232281446457,0.256159942574172,2.80604394906691
0.74,6.21125470278479,80.5468572873187,80.9251779999107,0.00918321002060826,0.407784293705052,0.431494295597076,-0.113463208511717,2.96618534990338
0.75,0.012407098711237,80.5334823568263,80.9251779999107,0.0180481131937986,0.532029986795401,0.522031962871552,-0.187916924183492,2.74729881970693
0.76,0.0967414765478862,80.5795812092988,80.9251779999107,-0.0282095583221607,0.490092851393104,0.488984286785126,0.0897878180889058,2.81720187720213
0.77,0.181083346473149,80.5372237172754,80.9251779999107,-0.0595100736134462,0.474712054081766,0.519089877605438,0.294893287277298,3.05971991851791
0.78,0.265441208308911,80.5651034433827,80.9251779999107,0.0773731659166155,0.508667349742936,0.463436454534531,-0.522921498603401,2.51609488039471
0.79,0.349764829502226,80.560687022578,80.9251779999107,0.0595680397161126,0.415270528803862,0.465810239315033,-0.427553957891723,3.0858643223243
0.8,0.434102649826251,80.5339521856192,80.9251779999107,-0.0164882601287407,0.50517030155855,0.500737309455872,0.0550913539947006,2.76343441841072
0.81,0.518433600047662,80.5678878407112,80.9251779999107,0.0443253339896312,0.403203071529134,0.413117796182632,-0.318376587751756,2.84677107341488
0.82,0.60276091467256,80.5480345427402,80.9251779999107,0.0159767099293813,0.468220888504222,0.516640722751617,-0.151516196918768,3.08530252131204
0.83,0.687079860089539,80.5313498533107,80.9251779999107,-0.0178791594325737,0.44648314254501,0.504821121692657,0.0405911331733796,3.17289379849087
0.84,0.771403894003422,80.536184493336,80.9251779999107,-0.0121047729561492,0.497210587500594,0.479350000619888,0.043311747316236,2.70752446910176
0.85,0.855748946750274,80.5586321903749,80.9251779999107,0.0477882629193735,0.559415660776739,0.54978883266449,-0.323104113543685,2.76204162845734
0.86,0.940075413579091,80.5429332146914,80.9251779999107,-0.0204022809157612,0.479085303146544,0.533576726913452,0.0685444520238704,3.13646792771972
0.87,1.02442430847557,80.4479816039319,80.9251779999107,0.0430480228772872,0.37455992056925,0.387297749519348,-0.310965467264987,2.88653743094937
0.88,1.10874976654702,80.5536931638663,80.9251779999107,-0.00120270692142659,0.490933375539122,0.556864738464355,-0.0368512838791754,3.2006171052752
0.89,1.19309681460863,80.484554401673,80.9251779999107,-0.0011430935290058,0.44026448765662,0.491670042276382,-0.0484449597561788,3.10523692979017
0.9,1.27741759816385,80.5847870380863,80.9251779999107,0.0268389381637734,0.44463423123622,0.511602163314819,-0.230240742371649,3.22507911015263
0.91,1.36174503277403,80.5592994978583,80.9251779999107,0.0753187005470223,0.573971866293409,0.533826351165771,-0.49866460375938,2.57955860896226
0.92,1.44611347558914,80.5301437565365,80.9251779999107,-0.0309537440153139,0.384992572525337,0.396975666284561,0.130496742230333,2.85521425108089
0.93,1.53043803793714,80.513840622892,80.9251779999107,0.0709181317449619,0.44419243673962,0.514116227626801,-0.512169093901263,3.19700470160242
0.94,1.61477525761662,80.5263112956505,80.9251779999107,-0.0667435793110011,0.480238998943132,0.474101632833481,0.302655263495505,2.76310986628281
0.95,1.69910188178114,80.5595662170648,80.9251779999107,-0.000801512033761637,0.459938187590876,0.505833268165588,-0.0614496643464683,3.06068946079773
0.96,1.78343725701586,80.5370880436904,80.9251779999107,0.048261217087061,0.521330186832438,0.53775680065155,-0.386418002192997,2.90070449252893
0.97,1.86775460308874,80.556408998872,80.9251779999107,0.00230817955231058,0.456367871797203,0.508853137493134,-0.138207937712165,3.13747396400519
0.98,1.95209028542594,80.5346286930563,80.9251779999107,-0.0209134542043481,0.458660399247642,0.493171781301498,0.0326200657201849,3.0292877108804
0.99,2.03643853392058,80.4882991312942,80.9251779999107,0.0191479910833055,0.388968950548617,0.41103982925415,-0.192305263299648,2.95208437467598
1,2.12077730936953,80.5554616043439,80.9251779999107,-0.013095709029441,0.434381184927857,0.466506153345108,-0.00245075269316608,2.98503093962528
1.01,2.20510518864268,80.5343750080067,80.9251779999107,-0.0690530545199562,0.43760574836233,0.516857445240021,0.347609436235365,3.30202668205294
1.02,2.28942793796382,80.5109006706827,80.9251779999107,-0.0156414975214152,0.488278888381413,0.46227690577507,0.0534859197038245,2.65889357321718
1.03,2.37378253370469,80.4732174043293,80.9251779999107,0.0811593645658464,0.426832756449672,0.447408348321915,-0.544693412355957,2.92769090281761
1.04,2.4580955038175,80.5641046520665,80.9251779999107,0.0551874119070825,0.491791053451405,0.518016755580902,-0.424177804461836,2.97885149357202
1.05,2.54242759802033,80.5581491334085,80.9251779999107,0.0586674355345945,0.57898774806424,0.531783521175385,-0.424088394985287,2.54512455207257
1.06,2.62678000063397,80.5514904622963,80.9251779999107,-0.00013872640756149,0.460662628407072,0.512387156486511,-0.0439547073264244,3.11595858109772
1.07,2.71110790982074,80.5301850596146,80.9251779999107,0.0181555135468493,0.522649943302131,0.50101912021637,-0.167081617837878,2.66386878406623
1.08,2.79543694309862,80.5112682668126,80.9251779999107,-0.0370765084927806,0.412996687106418,0.45522329211235,0.143865498496045,3.07402285863418
1.09,2.87976674914672,80.628962597821,80.9251779999107,-0.0122341497291069,0.444118497108388,0.404831886291504,0.0323077632646762,2.56296756402269
1.1,2.96411233348996,80.5070961462218,80.9251779999107,0.00663930010805522,0.471190337826744,0.460490047931671,-0.0955581150001045,2.73676160243847
1.11,3.04843830509713,80.553497347266,80.9251779999107,-0.0456337521374882,0.449595188529074,0.481743186712265,0.195086278201626,2.98493589254582
1.12,3.13277410698836,80.4987324931855,80.9251779999107,0.0330112694894283,0.438321921956914,0.464650332927704,-0.250765215409475,2.9590910190771
1.13,3.21710469117222,80.5925141260776,80.9251779999107,0.0146628085393833,0.53403752195005,0.551778078079224,-0.125952033512246,2.90718519490286
1.14,3.30144363444428,80.4752376272483,80.9251779999107,0.0135466313449408,0.474080411904546,0.462555050849915,-0.139881587537995,2.72312372434125
1.15,3.38577426091793,80.5667492035994,80.9251779999107,-0.0361065406858216,0.401554949498449,0.482170939445496,0.142444606307483,3.29982887983802
1.16,3.47010081954314,80.5366488165388,80.9251779999107,-0.0777924127608668,0.51426189690111,0.481947630643845,0.395895768033588,2.60710274374283
1.17,3.55445103190118,80.5838454197443,80.9251779999107,0.0649070110027982,0.560203718323182,0.547903656959534,-0.466417932850392,2.7169969594235
1.18,3.63877908494457,80.4938598154395,80.9251779999107,0.0416700313099387,0.396864583393236,0.459934085607529,-0.354008309479947,3.15547389470238
1.19,3.72310688253266,80.5332141273833,80.9251779999107,-0.0378630224867147,0.521275824179215,0.501839339733124,0.159943994481227,2.68671651055037
1.2,3.80744115276767,80.5974725175263,80.9251779999107,-0.0194892683626315,0.430315428238898,0.426674365997314,0.0653516401643569,2.77037766049077
1.21,3.89177676969365,80.5814543809186,80.9251779999107,0.0189968962496988,0.548249028585244,0.527171194553375,-0.175510114812565,2.66189417926063
1.22,3.97609997209046,80.5270363451131,80.9251779999107,-0.0531505110826764,0.464123099122004,0.484345048666,0.228797425993842,2.93228912540813
1.23,4.06042900447242,80.5218212532917,80.9251779999107,-0.0752250180098449,0.457139514294983,0.477651685476303,0.398213158876716,2.92166012460375
1.24,4.14477869307526,80.5654107493655,80.9251779999107,0.00897444500127237,0.413944300305956,0.435322284698486,-0.110729047519811,2.92507922001773
1.25,4.22910592253643,80.5224187249451,80.9251779999107,0.0360489440917397,0.442787608626191,0.484691202640533,-0.306279536370184,3.03114735502224
1.26,4.31344814226244,80.547231682705,80.9251779999107,-0.0327424395304922,0.503191304723896,0.505176424980164,0.127361596638196,2.80375298728554
1.27,4.39778020408549,80.5818581353798,80.9251779999107,-0.0159310595923614,0.439857568294962,0.465952306985855,0.033736603749438,2.93342395227154
1.28,4.4821131289782,80.5331073048424,80.9251779999107,-0.0185768168614999,0.499723650739253,0.554367184638977,0.0585417293551276,3.11331052133307
1.29,4.56643522584224,80.4978146646184,80.9251779999107,0.0223692470157918,0.401494738999876,0.466420263051987,-0.21171703601584,3.19532134171794
1.3,4.6507572961514,80.5222378166045,80.9251779999107,-0.0466193620851328,0.495299901812874,0.522801280021667,0.231655613353654,2.97405705832444
1.31,4.73511124385142,80.5236440920752,80.9251779999107,0.0265427453504811,0.403093878391622,0.381693750619888,-0.212927393295686,2.66024274018272
1.32,4.81943984906955,80.5545564081359,80.9251779999107,0.0988024769332697,0.493875067652434,0.500719964504242,-0.661069587349655,2.80752816654176
1.33,4.90377197586636,80.5266578531254,80.9251779999107,-0.0706291981317614,0.473941835056201,0.487590432167053,0.347819003697579,2.87420318304971
1.34,4.98809781617593,80.5454235408026,80.9251779999107,0.0202138213765405,0.512328445573385,0.495271176099777,-0.180831636477191,2.67935686065469
1.35,5.07244428694442,80.4676763536693,80.9251779999107,-0.0208769113056038,0.416335164658506,0.445929765701294,0.0761568757543276,2.95992463739825
