t,theta,omega,r,i_d,i_q,i_q_ref,v_d,v_q
0,0,0,118.717858954361,-2.27961399398184e-24,0,0,0,0
0.01,0.063487618111965,123.883717668717,118.717858954361,0.166480991421159,7.31228674864463,9.49854850769043,-1.09985906384141,16.8198998819073
0.02,0.187480384717095,118.160350850539,118.717858954361,0.0586908799718304,0.874696116213387,0.927986145019531,-0.484459787341095,3.81814177446481
0.03,0.311175309805489,118.089524468689,118.717858954361,0.0831301537434463,0.789855833076818,0.754699289798737,-0.628164228956972,3.2928965116973
0.04,0.434871598619747,118.132411553106,118.717858954361,0.00168936763567827,0.755431548169744,0.743230879306793,-0.124311921922077,3.43603109364597
0.05,0.55856156280508,118.127920771455,118.717858954361,-0.10037897084858,0.763237825589894,0.810012698173523,0.522489623212363,3.79907932858619
0.06,0.682245399084833,118.136409546185,118.717858954361,-0.0456608447119867,0.715384679249393,0.706033110618591,0.167434451596739,3.47252115091298
0.07,0.80593681474714,118.136791332358,118.717858954361,0.102220724498216,0.681903755958875,0.715386271476746,-0.703526005297411,3.71807916642591
0.08,0.929641306733068,118.120339786621,118.717858954361,-0.0500049767370246,0.737767626419015,0.722763299942017,0.202756405161999,3.40542494721984
0.09,1.05334619674894,118.076675981929,118.717858954361,0.00684611158456749,0.767606816267382,0.728819310665131,-0.128400914579891,3.25941248996572
0.1,1.17704379635143,118.1026625275,118.717858954361,-0.0309366386957687,0.779425063912007,0.73372358083725,0.0952893117310764,3.22387017352858
0.11,1.30073057742622,118.129363040445,118.717858954361,-0.0135266898276772,0.694408544727156,0.7054083943367,-0.0211618020467894,3.57745840447008
0.12,1.42441842737239,118.158219186751,118.717858954361,-0.0605990516397319,0.60289585477244,0.691365540027618,0.242925999459968,4.04095943972819
0.13,1.54810705166002,118.134249568074,118.717858954361,0.00654820265679909,0.755308793099569,0.784637153148651,-0.172695093903824,3.67397071723119
0.14,1.67179891952452,118.070249145766,118.717858954361,-0.000383185671326947,0.705856945580382,0.725417017936707,-0.110521475085741,3.62000921463769
0.15,1.79549694537753,118.095832199361,118.717858954361,0.00383529264338597,0.706001149359967,0.703165292739868,-0.135091719842526,3.48633896916903
0.16,1.91918533337613,118.127661875624,118.717858954361,-0.0778745440399942,0.821759233542117,0.790023267269135,0.357662510484794,3.3284093610262
0.17,2.04288801264148,118.123024606548,118.717858954361,-0.0399140499742323,0.661387513444361,0.661947548389435,0.125385030993313,3.51268343594124
0.18,2.16657011623225,118.159864243864,118.717858954361,-0.0494310784311413,0.73488267788,0.749189555644989,0.164908243963762,3.59755833271173
0.19,2.29026815808145,118.107412068826,118.717858954361,0.0217848274595153,0.766385390699605,0.71801745891571,-0.229951684838663,3.20388528822765
0.2,2.41396437796047,118.108260037155,118.717858954361,0.027758852100054,0.731663098652709,0.756175220012665,-0.260110616217633,3.64085018376321
0.21,2.53766574706515,118.15577493747,118.717858954361,0.0726312658310418,0.751872896372112,0.76652193069458,-0.522558094922218,3.57960126632484
0.22,2.66136545021442,118.042110234426,118.717858954361,-0.0300152317580958,0.656613504747822,0.664360225200653,0.0733971159412177,3.53673283045181
0.23,2.78505162235767,118.123247655845,118.717858954361,-0.11336118281446,0.715170254260102,0.730385482311249,0.561740600666769,3.59403806186901
0.24,2.90873804688426,118.1867800258,118.717858954361,0.0114938534556205,0.705454509803759,0.749167144298553,-0.181734256063325,3.76468955961835
0.25,3.03242810523192,118.10588752966,118.717858954361,0.0114161268371475,0.726059987057188,0.738285899162292,-0.153363486878832,3.57107590033203
0.26,3.15611574105422,118.094065655094,118.717858954361,0.0571283851121507,0.806805325411085,0.732531070709229,-0.413605935904056,3.06556957845491
0.27,3.27980369874934,118.121242521358,118.717858954361,-0.0355393107431259,0.831870775425494,0.780331790447235,0.135446984502608,3.21874468109876
0.28,3.403493082095,118.145767128855,118.717858954361,-0.00931919515466414,0.77927285178404,0.750661551952362,-0.0489739045892723,3.37464454297757
0.29,3.5271841110088,118.066293386947,118.717858954361,-0.085402557079085,0.576231456486483,0.657578229904175,0.409320240803687,4.03242301375551
0.3,3.65087125978111,118.15480431052,118.717858954361,-0.0228586405258475,0.709339212452405,0.737074255943298,0.0234039225652307,3.69755553973853
0.31,3.77456234416883,118.09797257926,118.717858954361,0.0591223433406159,0.704867480850508,0.735598802566528,-0.440302732544569,3.70639381196585
0.32,3.89826262462813,118.091156400928,118.717858954361,0.0158334747333684,0.76278257720777,0.71671187877655,-0.161202680338428,3.24473775996017
0.33,4.0219603484077,118.096726832388,118.717858954361,-0.0921035271286627,0.768822205688699,0.722813010215759,0.478113106187883,3.25321996775161
0.34,4.14565214013759,118.102545200181,118.717858954361,-0.138481086578676,0.750830698489462,0.825885653495789,0.793033763231145,3.98645400752256
0.35,4.26935286308206,118.168570091765,118.717858954361,0.0385551121498232,0.653623372819811,0.668373048305511,-0.32014104559205,3.60501406121577
0.36,4.39304422256206,118.096291987664,118.717858954361,0.0660542461197025,0.606128201626797,0.635202407836914,-0.460129262470383,3.67183044145291
0.37,4.51673524290087,118.123674371109,118.717858954361,0.020851779892023,0.718761065599496,0.718401968479156,-0.187815419700277,3.49585557833127
0.38,4.64041829226278,118.135153193109,118.717858954361,0.0899618709335814,0.764151492258261,0.758366405963898,-0.618901958532731,3.48799680518086
0.39,4.76411535251574,118.10762997182,118.717858954361,-0.0676106032150322,0.730772929246829,0.659614741802216,0.32293965113249,3.10100004446101
0.4,4.88781467952491,118.056371315329,118.717858954361,0.0228235229394702,0.688961158789668,0.694972157478333,-0.242631987656065,3.55736759049589
0.41,5.01150395054955,118.133790150934,118.717858954361,-0.0316583134840276,0.622052751450101,0.717581570148468,0.0864393298857117,4.08962801934649
0.42,5.13519532731646,118.12447013516,118.717858954361,0.0932357106719417,0.763211148229915,0.74494469165802,-0.678306912180508,3.39551818892607
0.43,5.25888739671616,118.109683462432,118.717858954361,-0.00276344235373899,0.715313456212936,0.704513609409332,-0.0666907259649055,3.44531818035644
0.44,5.38257727134417,118.148395148605,118.717858954361,0.0289882267897808,0.844865899116276,0.772492229938507,-0.237600631075664,3.08963042503861
0.45,5.50627373887839,118.118866963542,118.717858954361,0.0313270313199258,0.812134471699378,0.734940469264984,-0.255433560295451,3.06697078981561
0.46,5.62997036789177,118.163815746462,118.717858954361,-0.0618470643100859,0.676939115373159,0.718921661376953,0.294795593085071,3.77501496095388
0.47,5.75366980364133,118.231139830145,118.717858954361,0.0157504738592941,0.69186181373614,0.685954213142395,-0.186985734040753,3.46224251344591
0.48,5.87736624250955,118.112542720774,118.717858954361,-0.0229965102618289,0.775533831477404,0.720272839069366,0.0741857968943035,3.1512084610095
0.49,6.00106610462259,118.058509858504,118.717858954361,0.073753031664056,0.74350885644813,0.704852402210236,-0.530633711568009,3.25400644728691
0.5,6.12475768992577,118.108501402209,118.717858954361,0.0711310532527981,0.707409094776281,0.691566109657288,-0.513592592245157,3.40634286107815
0.51,6.24845900625489,118.065066754899,118.717858954361,-0.0170024875028555,0.699940939736455,0.632199168205261,0.0127209342194597,3.08958227660704
0.52,0.0889631524179162,118.145422338212,118.717858954361,0.0236219303079669,0.65004352840387,0.682134091854095,-0.254322121403948,3.69547468098871
0.53,0.212651060964743,118.079203765163,118.717858954361,0.046034804753428,0.637480229351904,0.681290984153748,-0.371324420809422,3.75444962169655
0.54,0.336338848799534,118.121851493621,118.717858954361,-0.0343410655312036,0.739318043584923,0.748321115970612,0.124177387162265,3.55139099164676
0.55,0.460032157841031,118.122711245047,118.717858954361,0.051345580109032,0.731905562750298,0.749758958816528,-0.371525726459955,3.61193507944896
0.56,0.583732650295769,118.095166018536,118.717858954361,-0.077777965108888,0.687966541286138,0.696658790111542,0.383293216814773,3.5583834159203
0.57,0.707422524895152,118.119011939102,118.717858954361,0.0221228096327989,0.703375685465914,0.706429779529572,-0.221554204404937,3.53468638319642
0.58,0.831113807842701,118.084043275615,118.717858954361,-0.114778541512559,0.657144386277228,0.660149693489075,0.595959684879936,3.52975199460349
0.59,0.954802062227566,118.124454458392,118.717858954361,0.131357139398662,0.753213111322359,0.771487653255463,-0.906313038182115,3.61464507374173
0.6,1.07849163007841,118.144996305893,118.717858954361,0.0344004864356701,0.738761473825581,0.756406128406525,-0.315720801370812,3.61433955792805
0.61,1.20218426050589,118.097578332076,118.717858954361,0.0213524566401886,0.826891165469448,0.768096566200256,-0.229975952646982,3.16704907302314
0.62,1.32588600654001,118.062496779761,118.717858954361,-0.0969617689751869,0.772567316298996,0.704698503017426,0.479255733403376,3.11135142857015
0.63,1.44958101695214,118.182273260735,118.717858954361,-0.00552310541753781,0.714236076650652,0.726743340492249,-0.0929098795646432,3.59507251136522
0.64,1.57326976790209,118.158187171613,118.717858954361,-0.119979791460803,0.691445409785691,0.711481034755707,0.554677834534335,3.63881594814785
0.65,1.69696119803728,118.154688337892,118.717858954361,0.0407441450639085,0.714753367037938,0.743835031986237,-0.368808500840147,3.68132479189486
0.66,1.82065860197432,118.155982957797,118.717858954361,0.0550286882242472,0.74722223328159,0.77327573299408,-0.445038698979849,3.66058893406204
0.67,1.94435868348203,118.135824339134,118.717858954361,0.0732939803741999,0.739719331392613,0.750899732112885,-0.547214728890774,3.57555775971682
0.68,2.06805407397347,118.100091210648,118.717858954361,0.0213923568516653,0.806787565388221,0.724334597587585,-0.216757837286863,3.01638175716876
0.69,2.19174842887733,118.16258967675,118.717858954361,-0.0743671390094413,0.741622315265253,0.718207180500031,0.352965874518661,3.37337274155851
0.7,2.31544679927542,118.198156028858,118.717858954361,0.0151547978429282,0.698961165241099,0.753033936023712,-0.186563065310495,3.81501557916456
0.71,2.43914503557586,118.14303119989,118.717858954361,0.00713736429418962,0.727428871515387,0.726818799972534,-0.11727957370162,3.47132744993966
0.72,2.56284052232825,118.080239058032,118.717858954361,0.00425353686204877,0.782947326609116,0.788259565830231,-0.101822854835216,3.50727006660675
0.73,2.68654005365573,118.125491112571,118.717858954361,-0.000360792727012338,0.748410611627526,0.738411366939545,-0.0763297488863504,3.41830576142576
0.74,2.81022408894887,118.11167780096,118.717858954361,-0.0162348592861695,0.809334741717651,0.747504949569702,0.0153291032646606,3.13159036496105
0.75,2.93392680336944,118.117624824877,118.717858954361,-0.0993858069935505,0.71853912818918,0.720409095287323,0.49910114922203,3.50521985792516
0.76,3.05760896788775,118.113909548351,118.717858954361,0.0773595704470553,0.740612067805247,0.739371299743652,-0.574403840059075,3.48600209122608
0.77,3.18130501392099,118.114879050534,118.717858954361,0.00527032899815666,0.769777293177672,0.699369311332703,-0.130095909435734,3.05662298094482
0.78,3.30499364560449,118.115577523135,118.717858954361,0.0478912986987293,0.829368857093688,0.761419951915741,-0.362475752750746,3.08538526915374
0.79,3.42868422968937,118.140429223496,118.717858954361,0.0420629625891315,0.759759303297897,0.745186626911163,-0.32648916034998,3.42517078963068
0.8,3.55238096045759,118.113165423907,118.717858954361,-0.0260124608984782,0.754708381485894,0.733018100261688,0.0838413204087855,3.38917372214398
0.81,3.67607208893302,118.165111967905,118.717858954361,-0.0186329370231891,0.700590114462995,0.730368435382843,0.0112922558570962,3.69038029211309
0.82,3.79976204977428,118.045984240888,118.717858954361,0.0228405229234577,0.61113694754955,0.640661239624023,-0.215749834203977,3.67484752262528
0.83,3.92345023086293,118.092970398053,118.717858954361,0.0365743343904842,0.774613450924369,0.748600542545319,-0.303838803475853,3.35162926214223
0.84,4.04714346627244,118.136265146447,118.717858954361,0.0766057256338292,0.723231691662512,0.724327623844147,-0.540096384285326,3.52935605777536
0.85,4.17083500394979,118.068583038244,118.717858954361,-0.0408149528985045,0.846126196649398,0.828608393669128,0.167121602733201,3.4267640324219
0.86,4.29453632642779,118.128498642776,118.717858954361,-0.00768635875863882,0.69685347375092,0.695846736431122,-0.0461192664116359,3.520208403853
0.87,4.41823049668219,118.132859310157,118.717858954361,-0.0684356816279409,0.709442733258702,0.703799724578857,0.314846459507089,3.47646425398323
0.88,4.54191625369904,118.083439201123,118.717858954361,0.0245492613033055,0.652257989846705,0.708579838275909,-0.252599387979291,3.84460829782316
0.89,4.66560514811989,118.114707488403,118.717858954361,0.000847730191067209,0.71882954967652,0.726130604743958,-0.0883848753923615,3.55741234958135
0.9,4.78930721907894,118.126885124053,118.717858954361,-0.0539763718261173,0.760645399458227,0.749146461486816,0.244987573960089,3.44466604273256
0.91,4.9130042288814,118.112631911165,118.717858954361,0.00527618887163109,0.807513060937672,0.726804316043854,-0.113516785688594,3.03174937138349
0.92,5.03670140530809,118.151663821074,118.717858954361,-0.0420903016651039,0.700840323650259,0.743813097476959,0.15602494389252,3.76666585159145
0.93,5.16039769309198,118.223508781484,118.717858954361,0.0169352788498253,0.675062584610004,0.670715808868408,-0.237616314382564,3.47104756556888
0.94,5.28409021095093,118.135417353555,118.717858954361,0.0567237277208496,0.655447576360081,0.688616573810577,-0.437856691575701,3.68200313055056
0.95,5.40779015741959,118.11121868827,118.717858954361,0.0663312721028968,0.733372591789006,0.768880307674408,-0.505991588815895,3.69239551719243
0.96,5.53147814419755,118.081554118067,118.717858954361,0.0533033189375456,0.70627783291468,0.717157781124115,-0.423464404019373,3.5608627581127
0.97,5.65516923177146,118.109679452562,118.717858954361,-0.0303492769664694,0.707583549121607,0.728904664516449,0.0803696927834638,3.63325827707671
0.98,5.77886175194774,118.034802256791,118.717858954361,-0.0488383267959511,0.574326011425845,0.602319538593292,0.164267333717236,3.67475137588662
0.99,5.90254081289237,118.142968853944,118.717858954361,0.03135224468457,0.672641748468047,0.721572875976562,-0.313127585976766,3.79727862874027
1,6.02623683736234,118.113725031614,118.717858954361,0.0161199181388273,0.742099526684274,0.774985492229462,-0.230693444021461,3.69041074093183
1.01,6.14993781607369,118.081577998127,118.717858954361,-0.03575145591497,0.77767094486482,0.738641858100891,0.106449862862803,3.25251389323787
1.02,6.27362883973639,118.10217265259,118.717858954361,-0.0993025656719464,0.738018203436878,0.72716224193573,0.492398158926492,3.43744433997231
1.03,0.114142170917287,118.12131375654,118.717858954361,0.000681759708648477,0.738355348884698,0.761469542980194,-0.0973700552233196,3.64248182209862
1.04,0.237832676364896,118.114679580925,118.717858954361,0.0024671984292841,0.610898285092216,0.641105949878693,-0.108257750802936,3.68482790950837
1.05,0.361521641137319,118.136818451974,118.717858954361,0.0285116033251923,0.726424064966164,0.750863134860992,-0.264354740664701,3.63330660841345
1.06,0.485212052235727,118.091690557315,118.717858954361,0.0759652555089561,0.702234643628722,0.747987627983093,-0.542936717887155,3.75881816322788
1.07,0.60890934818925,118.100506354306,118.717858954361,-0.0457331296679493,0.71109691608961,0.697111904621124,0.182364355836639,3.40584605156199
1.08,0.732606324390439,118.102730769872,118.717858954361,-0.0898871071099993,0.732983450885748,0.659469783306122,0.450496093890258,3.05647179816861
1.09,0.856300579228105,118.119028494909,118.717858954361,-0.0686675689810129,0.67730235508774,0.716823160648346,0.336651460698528,3.74105001391239
1.1,0.979992048498623,118.113486657241,118.717858954361,0.00626594306829997,0.627242792114817,0.67432576417923,-0.146791784449946,3.78346790528123
1.11,1.10366984596056,118.086344447116,118.717858954361,0.0107883499026925,0.664649069798919,0.710665643215179,-0.142988435711899,3.7827769441734
1.12,1.2273664048169,118.1049941768,118.717858954361,-0.0246281465205278,0.791168473200164,0.746316730976105,0.0669469138284316,3.23263468733913
1.13,1.35105372625351,118.097667422857,118.717858954361,-0.0597511318859644,0.832272759836881,0.777597904205322,0.297457380066466,3.19331273945588
1.14,1.47475944172158,118.099887476821,118.717858954361,-0.0432632858199199,0.734070945578853,0.672218143939972,0.193991672174482,3.14150015184978
1.15,1.59845677141981,118.108871662729,118.717858954361,-0.0471575681113081,0.737359627401814,0.699795722961426,0.200427465202105,3.28949082299243
1.16,1.72214886397071,118.202509168012,118.717858954361,0.0074514086868343,0.713846557863882,0.759046077728271,-0.144116689762407,3.77412761341583
1.17,1.84585021485362,118.097270570728,118.717858954361,0.00194206009243722,0.664907770345142,0.710202813148499,-0.104677379035113,3.75528494318743
1.18,1.96954505310007,118.114745249477,118.717858954361,-0.00984974491372284,0.795711166362371,0.763175010681152,-0.0287882572655449,3.28646510690198
1.19,2.09324091814443,118.148711583402,118.717858954361,0.0581259656750097,0.845015139515645,0.775023579597473,-0.436671471643728,3.07117607895742
1.2,2.21693803132636,118.115185284367,118.717858954361,-0.0507616215650339,0.788442324555953,0.723910689353943,0.199497509082403,3.11197105760681
1.21,2.34062631443007,118.136490663181,118.717858954361,-0.0460246086868901,0.72865970893176,0.689644873142242,0.175160275410599,3.27141434628663
1.22,2.46432628052233,118.18361403639,118.717858954361,0.0437914209966949,0.654243422730842,0.660222947597504,-0.386919986004063,3.52393606703506
1.23,2.58801419813563,118.145037797029,118.717858954361,0.0178233890308469,0.660866635753295,0.667250096797943,-0.190094034811061,3.524935774324
1.24,2.71171548839831,118.080876819615,118.717858954361,0.0348501652164366,0.748829264024611,0.690988600254059,-0.288634815016696,3.13352821006818
1.25,2.83542101817228,118.101603283038,118.717858954361,0.0458096627872492,0.704046172910775,0.690630972385406,-0.369758135945075,3.39103323482277
1.26,2.95911503641516,118.186034098558,118.717858954361,-0.0238314552740787,0.733006203729577,0.769743025302887,0.0422404654389013,3.70429509025197
1.27,3.08279765495694,118.16551264003,118.717858954361,0.00337649077654717,0.712701182187327,0.727087616920471,-0.141053221818286,3.58094756551924
1.28,3.2064921204417,118.184017969943,118.717858954361,-0.00813587986573611,0.708392932710766,0.747416079044342,-0.0301809480950348,3.71329304642135
1.29,3.33018157673547,118.088392268605,118.717858954361,0.0820592322626992,0.807659371956238,0.767992973327637,-0.587841831835558,3.23411026144335
1.3,3.45386852192156,118.091056170462,118.717858954361,0.0273653255186545,0.795046854524674,0.756648898124695,-0.247920364050064,3.26162231683574
1.31,3.57756917150149,118.124559957493,118.717858954361,0.017426769037032,0.732056509740285,0.745643436908722,-0.202286279979906,3.57730825641064
1.32,3.70126217978308,118.077274455686,118.717858954361,-0.00656367034006949,0.709132042166343,0.732323229312897,-0.0496730248218496,3.64522722400751
1.33,3.82496688768259,118.138890665672,118.717858954361,-0.0230881427004362,0.64066526739186,0.693721354007721,0.0428855151934549,3.80702837056587
1.34,3.94865918815946,118.113663338022,118.717858954361,-0.00499021401179828,0.674086479503216,0.692607343196869,-0.0635496792897909,3.58773124820053
1.35,4.0723417994696,118.121882477591,118.717858954361,-0.00267917053750222,0.84016890494264,0.7817462682724,-0.0419828175155097,3.14282411059391
