t,theta,omega,r,i_d,i_q,i_q_ref,v_d,v_q
0,0,0,116.742602383218,-3.05644195078601e-24,0,0,0,0
0.01,0.0638371272891454,120.694517601778,116.742602383218,0.151187919672044,4.20249312557166,5.38871240615845,-1.0155731344546,10.7063845737312
0.02,0.185613256072473,116.185734091821,116.742602383218,-0.0296416651766767,0.764369601720494,0.735973060131073,0.0703246806921699,3.24710789453067
0.03,0.307267119273226,116.152306811084,116.742602383218,0.0499788073916681,0.78442723236014,0.74084335565567,-0.405252168744334,3.18083471169634
0.04,0.428915415459834,116.158145139416,116.742602383218,-0.0369485793287896,0.756339363016267,0.683249056339264,0.126171141471278,3.034853631223
0.05,0.550563264634678,116.24194078213,116.742602383218,-0.0159905557254649,0.797875481059154,0.76346755027771,0.014779476853844,3.2816891880343
0.06,0.672212128245363,116.176901696102,116.742602383218,-0.086049438347602,0.679038292472283,0.709283232688904,0.432599403508129,3.6652883248194
0.07,0.793867009799236,116.141537419287,116.742602383218,0.0182620648695529,0.657721306467948,0.678178727626801,-0.174451674676814,3.59510103574576
0.08,0.915526194140523,116.166884129653,116.742602383218,-0.00140029878724361,0.798751949614946,0.748223483562469,-0.0610718156828273,3.17224863464508
0.09,1.03718781553483,116.200551812628,116.742602383218,-0.0212773007756636,0.788100865346042,0.708413243293762,0.0857685400441287,3.0099682996881
0.1,1.15885019983945,116.177238017182,116.742602383218,0.0663943259964175,0.723326397098345,0.672701835632324,-0.436977598377263,3.18747780652263
0.11,1.28050544422667,116.226802190638,116.742602383218,0.0302207710762484,0.625786323037048,0.666416049003601,-0.238278492389448,3.73379037899897
0.12,1.40215245278358,116.27995105211,116.742602383218,0.0775122301473218,0.69709893304289,0.751343071460724,-0.508179912363525,3.81223910455752
0.13,1.52380832148007,116.202675897667,116.742602383218,-0.00548892497481279,0.805604923730355,0.727171540260315,-0.0266293498262129,3.0140944313971
0.14,1.64546495767231,116.135298000945,116.742602383218,-0.0101024121064002,0.658258886470441,0.665636479854584,0.00618622190603609,3.54566733544174
0.15,1.76711558837086,116.193059884253,116.742602383218,-0.00460388244954185,0.703694108714577,0.696138501167297,-0.0244378672877349,3.4769549293954
0.16,1.88877330047567,116.117278134496,116.742602383218,-0.124405330320451,0.637030039075435,0.640418469905853,0.668613099048685,3.53792695607585
0.17,2.01043256042463,116.198554754042,116.742602383218,0.0210843766222999,0.589712444693986,0.576726734638214,-0.204484934780801,3.41802561269563
0.18,2.13208667260055,116.155623886541,116.742602383218,0.059541463981107,0.726355584782569,0.705092072486877,-0.440094540369543,3.36536219098745
0.19,2.25374408559785,116.151803370309,116.742602383218,0.00736288929780732,0.784934115689577,0.737073183059692,-0.134294858355739,3.21630642559104
0.2,2.375410079717,116.146933040798,116.742602383218,-0.082868715676281,0.756118048194282,0.68659245967865,0.4199713554057,3.0869158663447
0.21,2.49706431796499,116.111861978114,116.742602383218,-0.058365395621113,0.647411578127738,0.593418598175049,0.260478151918282,3.19151720201167
0.22,2.61871223487117,116.232422062943,116.742602383218,-0.0850507972187582,0.712211418751866,0.765707969665527,0.432482702987327,3.84126222561236
0.23,2.74038356403477,116.17350402304,116.742602383218,-0.02867349898619,0.63364349773583,0.659210085868835,0.0969993754084434,3.64183110100597
0.24,2.86204597489707,116.17603695369,116.742602383218,0.0304366875797157,0.689347465571959,0.711922407150269,-0.243495146456828,3.62352826852163
0.25,2.98371063814877,116.115326638749,116.742602383218,-0.00792239985985471,0.759593083755223,0.698195457458496,-0.0253355553984205,3.11978455023762
0.26,3.10537175666369,116.127544574401,116.742602383218,0.00846079583210374,0.698501660869928,0.655528485774994,-0.119733326821848,3.23974959784873
0.27,3.22703129386839,116.135780349602,116.742602383218,-0.112339950149613,0.639084282720236,0.646408498287201,0.599971449290921,3.5342961723762
0.28,3.34868257644576,116.149722813222,116.742602383218,-0.0284445466438828,0.637249891249159,0.675690948963165,0.0860728310193478,3.70882810120543
0.29,3.47033510942826,116.152864467115,116.742602383218,0.0196122496955228,0.668134519185644,0.690915524959564,-0.164879208866272,3.62049334239398
0.3,3.59199570602501,116.191771179918,116.742602383218,-0.0799450677651098,0.751718325764795,0.753315925598145,0.427469951746848,3.49779394493405
0.31,3.71365354079791,116.142727881268,116.742602383218,-0.00949229591007122,0.646016925945451,0.645192086696625,-0.00668486976464792,3.49237409714813
0.32,3.8353056469649,116.188546747999,116.742602383218,-0.0733321205632576,0.694049658914396,0.668975591659546,0.364690415170902,3.35366995254484
0.33,3.95695602237586,116.208465118099,116.742602383218,0.0296712889700357,0.650636716862896,0.706636369228363,-0.286697697215933,3.8325980666034
0.34,4.07861051599725,116.187383091543,116.742602383218,-0.0160480215479679,0.755257157063334,0.717942833900452,0.0271146013196728,3.27448515117643
0.35,4.20026633306868,116.153110032591,116.742602383218,0.0803455868919362,0.763755247873834,0.690587103366852,-0.559413825877067,3.06456951894031
0.36,4.32192997395478,116.155942518512,116.742602383218,-0.024522685549551,0.69823942039466,0.616778075695038,0.0856937224498919,3.02004048202023
0.37,4.44359526352158,116.190922749767,116.742602383218,0.00893403326375339,0.769107358018383,0.697402954101562,-0.106396673839717,3.07154625103415
0.38,4.56525302534993,116.239197400901,116.742602383218,0.0494424330732768,0.6288057338524,0.669731140136719,-0.379731391697866,3.74270832825188
0.39,4.68690547396645,116.185279874365,116.742602383218,0.0235338137706292,0.663865712641393,0.682415127754211,-0.203059685481641,3.60017024717129
0.4,4.80856579262931,116.179842073359,116.742602383218,-0.00367960887126673,0.799499116513711,0.738718092441559,-0.0440646681223091,3.12436132601819
0.41,4.9302304920627,116.16007527213,116.742602383218,0.0552504681708796,0.701569841196076,0.684014320373535,-0.403144181910193,3.38519734876838
0.42,5.05189206135954,116.134890572343,116.742602383218,-0.0585594931402419,0.63226314916877,0.668029129505157,0.256965017002004,3.7142646714283
0.43,5.17353833263731,116.189988164604,116.742602383218,-0.0704181336583406,0.701991546373175,0.720504343509674,0.305416482827424,3.62152861046124
0.44,5.29518485210584,116.154887731062,116.742602383218,0.0114725499705176,0.623217792523371,0.677735805511475,-0.180063246983376,3.83443392851839
0.45,5.4168404008656,116.207111262698,116.742602383218,0.0210013599612462,0.679377495158438,0.67688125371933,-0.225833747865917,3.49332382174951
0.46,5.53850168803386,116.11391450432,116.742602383218,0.0172400188261303,0.700529890650783,0.647481739521027,-0.193053811262667,3.19634570911956
0.47,5.66016583873579,116.164753184233,116.742602383218,-0.00154819243165585,0.65784784758461,0.655705571174622,-0.0940650418350742,3.50530803731342
0.48,5.78182897497199,116.177175979645,116.742602383218,-0.00447772883227265,0.583212947690898,0.588626325130463,-0.095680260869781,3.54272710244626
0.49,5.9034855479581,116.160872508266,116.742602383218,-0.0129710589842388,0.615564020437684,0.650281488895416,-0.0385475115178163,3.70803311293008
0.5,6.02514312152598,116.147823798245,116.742602383218,0.0436644425596485,0.711029743052649,0.658765017986298,-0.373606954990317,3.17547658811125
0.51,6.14680082337977,116.193289946837,116.742602383218,0.0205882030999722,0.79555621353571,0.732750475406647,-0.204826958603399,3.12015290833172
0.52,6.26845933417003,116.191455277465,116.742602383218,-0.0512785823482414,0.680463609776812,0.697671413421631,0.226305835874537,3.61112797098119
0.53,0.106929225445213,116.134695166989,116.742602383218,-0.107024455177236,0.730438704522079,0.690809786319733,0.558935380692339,3.27887440529035
0.54,0.228575566178839,116.246277538632,116.742602383218,0.00484628286626763,0.669434317862562,0.72322005033493,-0.110861004175566,3.84181331410919
0.55,0.350229871537671,116.193763813035,116.742602383218,-0.0105032872858519,0.706311628439115,0.707438111305237,-0.0182787413827224,3.51693220603524
0.56,0.471894571257616,116.178384223025,116.742602383218,-0.0153743747475813,0.67922137113028,0.675791561603546,0.0222444621790863,3.48235775233977
0.57,0.593550316567462,116.14870887641,116.742602383218,-0.0251090978116706,0.749578012057215,0.715179920196533,0.089597212187804,3.31004873992352
0.58,0.715207396131857,116.164400928373,116.742602383218,-0.0518161790293189,0.651441226275189,0.679773390293121,0.233097193193977,3.69542426176499
0.59,0.836865772486017,116.08967850278,116.742602383218,-0.0111661273800338,0.553992534936635,0.599505662918091,-0.0263097272592124,3.79664262739748
0.6,0.958511812395422,116.167749118474,116.742602383218,0.00377956279807187,0.629640845303037,0.655503869056702,-0.103587891768989,3.6749702728589
0.61,1.0801720540977,116.117065723905,116.742602383218,0.0480768714255748,0.705268403603114,0.664969742298126,-0.349771949610485,3.26949449011618
0.62,1.20182838687928,116.14429028309,116.742602383218,0.00974012270198371,0.759949581519055,0.675056636333466,-0.133329241788983,3.01076067508671
0.63,1.32349335612324,116.146295042487,116.742602383218,0.010764013281248,0.65209177623987,0.644448935985565,-0.137685229011374,3.47212938084608
0.64,1.44515303722567,116.163175582051,116.742602383218,-0.0527321729700407,0.699528280799513,0.677051067352295,0.235295276063633,3.38816367102192
0.65,1.56681303197225,116.228289692842,116.742602383218,0.0172832223590953,0.63385541005943,0.666610062122345,-0.197734679612374,3.70279998598856
0.66,1.68846553468215,116.179620114136,116.742602383218,-0.0131909012407659,0.733501817291447,0.664671540260315,-0.00187286189439445,3.08908588834941
0.67,1.81013053435115,116.178974560278,116.742602383218,0.0565903566287766,0.794065419498573,0.752601981163025,-0.41394063703328,3.24346558671289
0.68,1.93179504961617,116.149369816277,116.742602383218,-0.00973154588313652,0.737120773211046,0.684337139129639,-0.0321541712400097,3.18091300964813
0.69,2.05345596405781,116.182188641346,116.742602383218,-0.0381134042499166,0.750417394076567,0.692865788936615,0.156350502374157,3.15513318723371
0.7,2.175111858588,116.24351001634,116.742602383218,-0.0709289085154241,0.71422319841429,0.750399589538574,0.349939560511097,3.71643899468832
0.71,2.29676736312909,116.144975600797,116.742602383218,0.0691056410972643,0.589757276214083,0.657778978347778,-0.487176315492516,3.8967146681576
0.72,2.41843022867956,116.189608562903,116.742602383218,0.00861114571074795,0.802917576232265,0.747764527797699,-0.129402743220042,3.15161431977342
0.73,2.54009039893374,116.207838869347,116.742602383218,-0.0742012161996106,0.802333484886367,0.742585361003876,0.390684833065979,3.13477242312058
0.74,2.66174775775021,116.195249584014,116.742602383218,0.0493339640436234,0.798331298633349,0.763286173343658,-0.364717861646841,3.28721738275359
0.75,2.78340487486805,116.195402414694,116.742602383218,0.0205082092255165,0.661983252887785,0.683018505573273,-0.21171789092992,3.62295900138433
0.76,2.9050531955416,116.118700216826,116.742602383218,0.0827420050565162,0.573874001703527,0.668636798858643,-0.571325339769986,4.06062069096211
0.77,3.02670879711395,116.136666748082,116.742602383218,0.0495240853999911,0.705152993864205,0.649207711219788,-0.37778886716862,3.15460237788223
0.78,3.14837144033268,116.21708556851,116.742602383218,0.0368585992313391,0.703865097067964,0.722414076328278,-0.29430826139084,3.60557890717403
0.79,3.27003436768211,116.167648000287,116.742602383218,-0.0444957899541822,0.754313337699604,0.675207853317261,0.182623876634379,3.021567877751
0.8,3.39169156056628,116.215535168902,116.742602383218,0.034404796567928,0.726042508770544,0.725413501262665,-0.295987888948025,3.49525160348369
0.81,3.51334442245623,116.233506668691,116.742602383218,-0.0282406352963063,0.673924856777243,0.740039587020874,0.077793258152521,3.89059603818814
0.82,3.63500546868844,116.191038422801,116.742602383218,0.0579068030767176,0.734409109795376,0.702736079692841,-0.412675901729862,3.28901108924121
0.83,3.75666446263391,116.151042492392,116.742602383218,0.0125744614130596,0.664332524648922,0.661943435668945,-0.150142803014861,3.47210488485668
0.84,3.87832532565618,116.119740647943,116.742602383218,-0.0366699503025597,0.745293779660873,0.714373469352722,0.157406302972012,3.31031737903787
0.85,3.99997962571845,116.176712821034,116.742602383218,0.0104062302391967,0.669650781300025,0.675918221473694,-0.130207597329085,3.54812296636188
0.86,4.1216396016577,116.172514834999,116.742602383218,0.00843061418133778,0.594406540218802,0.610837578773499,-0.120284239012897,3.59431715097391
0.87,4.24329931054767,116.16396343349,116.742602383218,0.0533755184948342,0.626650887088747,0.687566936016083,-0.405521301010159,3.8434946750529
0.88,4.36494965880812,116.165122717993,116.742602383218,-0.000435056168048009,0.673308705176919,0.681405365467072,-0.0553757248505558,3.53545677930414
0.89,4.48661266201987,116.159747161397,116.742602383218,0.0677035440215392,0.767695146397195,0.692011654376984,-0.46378340744358,3.03768849117121
0.9,4.60827656125685,116.157302113196,116.742602383218,-0.00738780684634877,0.653733133529829,0.658411681652069,-0.0335771550471902,3.52015714402501
0.91,4.72992950190726,116.230403352895,116.742602383218,-0.0405272195688669,0.721584607724472,0.696648299694061,0.160452539859698,3.34638543480854
0.92,4.85158598582479,116.142333834117,116.742602383218,-0.0595100519224883,0.645343231864778,0.683147311210632,0.262430852431772,3.70862842632138
0.93,4.97323685662167,116.1403158568,116.742602383218,-0.0277200974964917,0.727644090354417,0.674106419086456,0.0952007086620338,3.16617075363416
0.94,5.0948891359373,116.144843807442,116.742602383218,0.0709165793125884,0.779768892979342,0.736043870449066,-0.481719673195186,3.23816351842128
0.95,5.2165480138605,116.116307784011,116.742602383218,-0.0592469381295837,0.689117178952573,0.642124831676483,0.318944510403247,3.23317699899311
0.96,5.33820371349467,116.250459756255,116.742602383218,-0.00996932820342158,0.798869126785326,0.753417432308197,0.00555861832415316,3.24540715410901
0.97,5.45985994176362,116.203269346075,116.742602383218,0.000125700487629277,0.620745556746928,0.663100302219391,-0.0933349585941372,3.76329726089734
0.98,5.58151751517456,116.193104819691,116.742602383218,0.0427613904444199,0.680462714051109,0.715259313583374,-0.33610078863542,3.70683450740483
0.99,5.70317946983583,116.181105185031,116.742602383218,0.083929634889455,0.787713191000618,0.739189624786377,-0.591952108856974,3.20342801254817
1,5.8248381483719,116.196664767615,116.742602383218,-0.0379436702624156,0.791196603274143,0.718326508998871,0.147407479789022,3.07329653436036
1.01,5.94649863052416,116.217684098381,116.742602383218,-0.0307939817593794,0.658982546271174,0.685867071151733,0.0891083683402972,3.67886904537439
1.02,6.06816083939363,116.171969961882,116.742602383218,-0.0384974042961546,0.565293286319177,0.6158407330513,0.13167694865164,3.80712503416765
1.03,6.18982241113833,116.192806461728,116.742602383218,0.0800628267099273,0.573048725167269,0.592346668243408,-0.562798299819331,3.59838969285959
1.04,0.0282966445577539,116.170345508411,116.742602383218,0.00848910688315473,0.670015652993642,0.668917894363403,-0.138129258400002,3.4720701959685
1.05,0.149949064476541,116.172882075418,116.742602383218,0.0213187088238746,0.821055281644237,0.765158951282501,-0.207098059436594,3.15949385417506
1.06,0.271611081317326,116.173637067257,116.742602383218,0.00752014374099955,0.657234864975096,0.67251580953598,-0.126927291856628,3.5965678883941
1.07,0.393262730112957,116.168659019315,116.742602383218,-0.0957177204012289,0.679271748771735,0.692223072052002,0.482405553606277,3.59687458343191
1.08,0.514921875383349,116.212740856319,116.742602383218,-0.00146421932911167,0.651888409157671,0.693084895610809,-0.0694573684395876,3.75360169105061
1.09,0.636582480027235,116.177030499967,116.742602383218,-0.0154448838901493,0.686795188307061,0.680882275104523,0.0166197364990604,3.45502742150097
1.1,0.758237171879221,116.184054774789,116.742602383218,-0.0184386811191961,0.795289602513465,0.733526825904846,0.0417420771908292,3.13281046477119
1.11,0.879903747081546,116.15877277896,116.742602383218,-0.00284092462413356,0.653827165923449,0.643503248691559,-0.0502040901056565,3.44167263520345
1.12,1.00155446067494,116.122137667362,116.742602383218,-0.0999849676262777,0.736434215306281,0.713706135749817,0.52077295424983,3.38054660098236
1.13,1.12320727688768,116.214922288235,116.742602383218,0.0216719283928722,0.62122603429198,0.659431576728821,-0.198841058900782,3.73834926887895
1.14,1.24486406206622,116.190862450153,116.742602383218,0.101689898759239,0.730035448403367,0.720849633216858,-0.670524296268716,3.44872898626914
1.15,1.36652439891735,116.152694867278,116.742602383218,0.0702641925078174,0.70080252819754,0.619455575942993,-0.47417845709876,3.0196019909753
1.16,1.488174091593,116.155833283996,116.742602383218,-0.0185288685892129,0.779561360832548,0.721760153770447,0.0619483341834066,3.18399921563988
1.17,1.60983884601786,116.147085035954,116.742602383218,-0.0206275506707654,0.723166491188902,0.698469281196594,0.077374192483507,3.38084877631431
1.18,1.73150404237634,116.192608440004,116.742602383218,-0.0846139164517525,0.552967191694891,0.600293338298798,0.466136811257845,3.79554542858903
1.19,1.85316164242493,116.231960235386,116.742602383218,0.0238081457564092,0.72305966898324,0.75886344909668,-0.205564183631022,3.70782798514662
1.2,1.97481379849849,116.160581545181,116.742602383218,-0.0104430195063242,0.780105994631752,0.710437715053558,0.023360200904348,3.07783870580744
1.21,2.09647575259932,116.135369468985,116.742602383218,0.00558262412954802,0.658013034567267,0.663829982280731,-0.0875135606019687,3.53333266378392
1.22,2.21813181166959,116.134622669757,116.742602383218,-0.00311801370431967,0.646887541985809,0.657216787338257,-0.0549766489330377,3.57238307321783
1.23,2.3397915050091,116.143660749956,116.742602383218,-0.0805699794570938,0.606071734736741,0.635642290115356,0.407438472228047,3.68953170897834
1.24,2.46145206363303,116.145472150668,116.742602383218,-0.00771538241892829,0.621658199287344,0.681082904338837,-0.045397544232612,3.84746925003545
1.25,2.58310602130894,116.139837787874,116.742602383218,0.0288778919499841,0.606533737183689,0.641746938228607,-0.243530130685797,3.70087425797918
1.26,2.70475913768345,116.173970421448,116.742602383218,0.0498737534874474,0.787950320795989,0.729609727859497,-0.357803573634983,3.15418359566006
1.27,2.82642389062907,116.144415478036,116.742602383218,0.000355481834822147,0.695621929309932,0.625313639640808,-0.0829908741104631,3.08426826145272
1.28,2.94808215187458,116.203286079256,116.742602383218,-0.0197130019457241,0.765901255207859,0.761786282062531,0.0309991773372613,3.48769420616622
1.29,3.06973708531452,116.160918179135,116.742602383218,-0.0741341673576499,0.668512771458566,0.684657692909241,0.356826006110196,3.60238823731743
1.3,3.19139605447226,116.205656864944,116.742602383218,0.0149000578734046,0.727929147108513,0.67054694890976,-0.157983978898169,3.14935470117052
1.31,3.31305537756885,116.153997034835,116.742602383218,-0.0167134399346366,0.773192551947218,0.689926743507385,0.0200531728851274,2.99670521334859
1.32,3.43471470371914,116.143295320665,116.742602383218,-0.0745924951893816,0.774870848715166,0.73112165927887,0.372329356185822,3.24576491703001
1.33,3.55637596613438,116.249032674009,116.742602383218,-0.0236949671591541,0.75128552893145,0.775557279586792,0.07369622379863,3.65233982781819
1.34,3.67803282202949,116.218051655557,116.742602383218,-0.00516600336400069,0.678306390012757,0.724749147891998,-0.0641870720440172,3.78591446846105
1.35,3.7996912159539,116.161137756785,116.742602383218,0.00209016608728967,0.620719853115045,0.665167510509491,-0.0988699365530672,3.76348286330641
