t,theta,omega,r,i_d,i_q,i_q_ref,v_d,v_q
0,0,0,303.924144245693,-8.27934061692198e-25,0,0,0,0
0.01,0.0630794718136891,123.919716909145,303.924144245693,0.186383207340841,7.50852953495521,10,-1.21349542295484,18.8276483662924
0.02,0.258260296583429,246.446824427252,303.924144245693,0.104569123046283,7.64516583471613,10,-1.02821197325187,21.5350322352631
0.03,0.560346036399466,302.489588314754,303.924144245693,-0.113421816838946,1.09157287515396,1.03967976570129,0.0347812080552515,8.57888569736993
0.04,0.876999464785678,302.407579126246,303.924144245693,0.015185761554877,1.72741384205331,1.71627593040466,-0.751187118795027,8.9949626369585
0.05,1.19370886024195,302.429161402303,303.924144245693,0.0391136341103404,1.77872139801592,1.80241680145264,-0.899863724482228,9.28611330683166
0.06,1.51042594353167,302.342449386905,303.924144245693,0.0105364228940394,1.90553034133073,1.90684998035431,-0.740399847397284,9.2165041914933
0.07,1.82715599901891,302.473339908895,303.924144245693,0.0745163357862291,1.8131185765329,1.90855300426483,-1.13504421207892,9.82607818211306
0.08,2.14388969215122,302.591070217217,303.924144245693,-0.00676527302323515,1.90811942952966,1.95740938186646,-0.670369956609524,9.59216766387284
0.09,2.46062270747269,302.50367641836,303.924144245693,0.0939419769964001,1.68995191168029,1.7812260389328,-1.25952334601445,9.89973143509987
0.1,2.77736669678641,302.627009875099,303.924144245693,0.00535545134471338,1.67167910503806,1.76420760154724,-0.740920582553822,9.94376967997634
0.11,3.09412660776754,302.528547138638,303.924144245693,-0.088004465287015,1.6286249595974,1.72060894966125,-0.189925858507821,9.94736814468559
0.12,3.41089054211764,302.478197438196,303.924144245693,-0.0453026427050484,1.64438432774687,1.63170874118805,-0.447339443624431,9.31113902401314
0.13,3.72763761003165,302.524812315462,303.924144245693,-0.0226498790729261,1.77875860703701,1.76387357711792,-0.566708281422071,9.31428272157915
0.14,4.04439628484132,302.448119215311,303.924144245693,0.0758369977383395,1.89883231567875,1.81686234474182,-1.17516730492519,8.90448604434348
0.15,4.36114155025605,302.428065591099,303.924144245693,0.0638655812703638,1.92909620793393,1.88039755821228,-1.0975656197842,9.12318132325681
0.16,4.67788036547734,302.503983638415,303.924144245693,0.132122345748988,1.99803011133331,2.05786395072937,-1.51553921230542,9.80618536894623
0.17,4.99464923043637,302.527432569393,303.924144245693,0.118821931977767,1.73403245038274,1.83908903598785,-1.44863562247425,10.0664526703184
0.18,5.31140227274183,302.597509147876,303.924144245693,0.0321405045891379,1.74680091432086,1.79128992557526,-0.933923898385439,9.72695685244486
0.19,5.62816708557133,302.610782639762,303.924144245693,-0.00695774261993656,1.67296978773655,1.73739337921143,-0.674492843920276,9.84729208885595
0.2,5.94493171559575,302.558404521715,303.924144245693,-0.0911029440545958,1.7306758324849,1.72132337093353,-0.17301749011487,9.39578651144132
0.21,6.26169850299614,302.447549303835,303.924144245693,-0.155931679852075,1.63810378500823,1.61049497127533,0.23863435771301,9.27307029021455
0.22,0.295273898974618,302.400179646073,303.924144245693,-0.0473358878626829,1.85572358497999,1.75453841686249,-0.431455578085318,8.81885228294178
0.23,0.611999838677854,302.355458856606,303.924144245693,0.0417586988179623,1.89416649577128,1.86073291301727,-0.98471134452888,9.27530070000326
0.24,0.928777246570304,302.510815130043,303.924144245693,0.0173303768882311,1.80695190813556,1.78556323051453,-0.855915266975507,9.3112503094032
0.25,1.2455200848539,302.594125617934,303.924144245693,-0.0314815622888153,1.91329165024443,1.95722568035126,-0.565409314767801,9.7261840233654
0.26,1.56227643374501,302.567063611044,303.924144245693,-0.00845439282309744,1.65928164480745,1.73359537124634,-0.709903658380792,9.92008842748368
0.27,1.87904896779351,302.63004455271,303.924144245693,-0.014364362090117,1.67403715700368,1.76377534866333,-0.677766424174005,9.99821375970916
0.28,2.19580950162301,302.579731370815,303.924144245693,-0.0944847977632621,1.68089529324658,1.74957966804504,-0.201341514748471,9.87402987212789
0.29,2.51258376686059,302.481759081571,303.924144245693,0.0208681304504935,1.64752964478667,1.58358097076416,-0.890558787817136,9.05536116988219
0.3,2.82933448530208,302.503248241741,303.924144245693,-0.0263622765070551,1.83136682107469,1.76588010787964,-0.586638381502022,9.05863731297122
0.31,3.1461060960832,302.441047992565,303.924144245693,0.0036805648328886,1.81425865379221,1.74102532863617,-0.766915684097971,8.98534049824675
0.32,3.46287635164442,302.486150547502,303.924144245693,0.101114954600111,1.79897196321208,1.78114175796509,-1.34578784968265,9.29741174236688
0.33,3.77962982166974,302.553983477689,303.924144245693,0.080285689413935,1.9310134095801,1.93990933895111,-1.21707539859144,9.45913580560294
0.34,4.09638606715995,302.561908162302,303.924144245693,0.0181112085279996,1.66399202370665,1.80643045902252,-0.860467080708311,10.273181379367
0.35,4.41314174183653,302.573907853788,303.924144245693,0.0947378329359969,1.60022395227483,1.67227387428284,-1.30771988624351,9.86977066520402
0.36,4.72989229019707,302.602003659497,303.924144245693,-0.103172830721551,1.58814836093004,1.59091651439667,-0.119457660238878,9.49093191757105
0.37,5.04665226809035,302.454930071095,303.924144245693,0.0209965221087479,1.60057848567961,1.59465181827545,-0.881588656399232,9.43759166977728
0.38,5.36341604297454,302.46448666308,303.924144245693,-0.021928510992958,1.66636373404797,1.62715780735016,-0.608402173080486,9.2264818641406
0.39,5.68017917616644,302.449664855327,303.924144245693,0.0976697586447739,1.71012666306794,1.69850659370422,-1.32613645576745,9.38071929023107
0.4,5.99693360165615,302.438378284165,303.924144245693,0.0810538095808218,1.79931494378482,1.79968750476837,-1.21946642642021,9.45106413729235
0.41,0.0305139933664336,302.554687016987,303.924144245693,-0.029403140159344,1.90472585468332,1.89928758144379,-0.555865717634117,9.40058874751406
0.42,0.347259027331532,302.572094700734,303.924144245693,0.140345390953628,1.84413906200676,1.95701897144318,-1.59119646131105,10.1364983700395
0.43,0.66402885394224,302.461027608642,303.924144245693,0.0135193147164133,1.53797182997314,1.69601368904114,-0.832280372693548,10.3960320723026
0.44,0.980779232605187,302.537891003257,303.924144245693,-0.075136592200186,1.62380981949353,1.76343309879303,-0.313332702216167,10.3114695001171
0.45,1.29754021324612,302.592996987352,303.924144245693,-0.118265248677108,1.68439327594074,1.75836098194122,-0.0438334266966646,9.92391010458149
0.46,1.61432180954956,302.367616340831,303.924144245693,-0.151388539536913,1.55166212319127,1.55209684371948,0.165789882768475,9.44773487381547
0.47,1.93107029992058,302.474119665764,303.924144245693,-0.0726719015253993,1.72056112702403,1.69842123985291,-0.317709716482361,9.32844766212266
0.48,2.24783384842328,302.447190141149,303.924144245693,-0.0264768978513629,1.79001091347133,1.77902901172638,-0.597203140958679,9.37962913583389
0.49,2.56458753158304,302.452737418666,303.924144245693,0.130222154803868,1.81099449538559,1.800537109375,-1.55228488674958,9.38561384926929
0.5,2.88134364887559,302.565407780819,303.924144245693,0.0557436765047269,1.93569258793591,1.92949509620667,-1.09158849506278,9.41113118983035
0.51,3.19811324953183,302.54099343898,303.924144245693,0.0248143042681352,1.60198992367507,1.72034049034119,-0.895529343604533,10.1485724332691
0.52,3.51488012366383,302.577493403121,303.924144245693,-0.0136463847099119,1.54708922435934,1.65036487579346,-0.683293908631094,10.0534341271866
0.53,3.83165170708771,302.621919768513,303.924144245693,-0.113954940459187,1.73595162834776,1.77074134349823,-0.0722326086298389,9.63507730285587
0.54,4.14840951583639,302.509989157151,303.924144245693,-0.0836667267776022,1.73290938834288,1.69521021842957,-0.250058177081505,9.20409199763367
0.55,4.46517820057316,302.449231440226,303.924144245693,-0.0387853006998307,1.70917548864227,1.62295365333557,-0.509901601453107,8.90130500636104
0.56,4.78193650163475,302.4072594433,303.924144245693,-0.0313321444176733,1.86243646650882,1.78607976436615,-0.540070307656964,8.95321768539726
0.57,5.09868942071116,302.346622058035,303.924144245693,0.00477112699540827,1.89861604790394,1.88344419002533,-0.756135827757587,9.3285178723307
0.58,5.41546361722812,302.524306793503,303.924144245693,0.121912848833535,1.80187837885428,1.84167468547821,-1.46420722238322,9.63825677044311
0.59,5.73220965705054,302.58790574633,303.924144245693,-0.00234920339129407,1.89622723378406,1.94473016262054,-0.735132371530654,9.71362574476757
0.6,6.04897894851397,302.473650138448,303.924144245693,0.0508844168265094,1.56975714408629,1.73512387275696,-1.06527635197748,10.407708792351
0.61,0.0825462007058988,302.562283774461,303.924144245693,-0.0463402797980266,1.70944307590972,1.76695239543915,-0.484035740379526,9.78104799647566
0.62,0.399304543301906,302.56243240524,303.924144245693,-0.120707050979064,1.76816768684209,1.78925085067749,-0.0212402646942131,9.57012844445984
0.63,0.71607981615718,302.452962781176,303.924144245693,-0.111628902959647,1.68772249199546,1.63917326927185,-0.0738413334010685,9.12803751333012
0.64,1.03283464113051,302.472986136635,303.924144245693,-0.051151293540412,1.79276250062921,1.69604647159576,-0.439944912263184,8.84354637885613
0.65,1.34958975091722,302.347044204625,303.924144245693,0.0137761635455652,1.88766495517227,1.89408576488495,-0.816828809088999,9.46251186630557
0.66,1.66635364752936,302.457782639392,303.924144245693,-0.0422108831609591,1.78157747306649,1.79010021686554,-0.483601956585082,9.46509123198198
0.67,1.98311535377729,302.510369313901,303.924144245693,0.138461114655976,1.78642151664398,1.80110716819763,-1.57239776052298,9.4911657282617
0.68,2.29987793465755,302.471968114983,303.924144245693,0.0521648448070273,1.6697871696114,1.72808277606964,-1.06619553212377,9.75256024168195
0.69,2.61663259524853,302.575084191449,303.924144245693,-0.0311444072074981,1.55236573647915,1.65948474407196,-0.582994548745594,10.0646113632118
0.7,2.93340240847745,302.622965622029,303.924144245693,0.0264796404994089,1.69296081068843,1.77261209487915,-0.927075349624052,9.89373817297034
0.71,3.2501650537464,302.570979391634,303.924144245693,-0.0343112478599473,1.74004318011119,1.71867036819458,-0.580958493677068,9.29006426928872
0.72,3.56692364487908,302.470587184333,303.924144245693,-0.121205499100525,1.68544956105321,1.66000878810883,-0.0363193942063353,9.26277919900336
0.73,3.88368023685954,302.467708716762,303.924144245693,0.0468596174544911,1.70798302245189,1.68673360347748,-1.01064559274474,9.28696195524065
0.74,4.20043768372383,302.461937819555,303.924144245693,0.0479015388680235,1.86036267805041,1.78608536720276,-1.02275078245566,8.96712493992553
0.75,4.51717297305629,302.464086698158,303.924144245693,0.0548024156270103,1.98165483115908,1.9959808588028,-1.08631627434631,9.53115880612972
0.76,4.833934511549,302.559719464159,303.924144245693,0.127617236297327,1.84449514108526,1.95504713058472,-1.51619169127181,10.1064055924266
0.77,5.15069868448506,302.491389571458,303.924144245693,0.079952875817987,1.62492344850213,1.69928109645844,-1.22833532844119,9.89020784568299
0.78,5.46746025527667,302.702258537297,303.924144245693,0.0184373056401617,1.55696093543655,1.63007342815399,-0.891835024278671,9.89830070027674
0.79,5.78421888126314,302.614201386014,303.924144245693,-0.0926592838224646,1.75839205147698,1.74058103561401,-0.197272264506546,9.35974073217726
0.8,6.10100047776974,302.425233425126,303.924144245693,-0.151720160930301,1.5391155373435,1.58018290996552,0.167397381328909,9.68399077916394
0.81,0.134558015749196,302.398383950832,303.924144245693,-0.0261285267498346,1.70081553589178,1.59349346160889,-0.571570353524196,8.81854142972653
0.82,0.451308753917047,302.461628993012,303.924144245693,-0.0368403681421127,1.83148385469463,1.73094272613525,-0.49269713534505,8.85907030886827
0.83,0.768063593066739,302.541431716259,303.924144245693,-0.00814910483442211,1.86538150988723,1.85662627220154,-0.665340711880892,9.40719433426916
0.84,1.08480049248717,302.461158651754,303.924144245693,0.0886619319115729,1.99957498165023,2.08061361312866,-1.26610026857233,9.97930018846967
0.85,1.40156412847047,302.577044808697,303.924144245693,-0.0166470617974112,1.81765165148569,1.88333773612976,-0.636400633366015,9.88421091180729
0.86,1.718338386199,302.552876399016,303.924144245693,0.106538149584628,1.58833971846504,1.65121603012085,-1.38420480369191,9.85446128190089
0.87,2.03510505232166,302.587997591625,303.924144245693,-0.109887346553608,1.68597714887094,1.75027418136597,-0.0580125647645826,9.86170760096108
0.88,2.35187405652893,302.556161767084,303.924144245693,-0.0794967367054387,1.65799757277905,1.69782292842865,-0.24653046816355,9.70589977309173
0.89,2.66863936183795,302.463331764652,303.924144245693,-0.0551224427981278,1.65860839294194,1.63760304450989,-0.389999192995785,9.32836554060001
0.9,2.98540405703791,302.471239107939,303.924144245693,-0.0185950191793507,1.81849917205985,1.7215530872345,-0.60943833946378,8.85603889863193
0.91,3.30215590904794,302.347947674345,303.924144245693,-0.0329469143242079,1.89014016611393,1.84529447555542,-0.52396766208783,9.1735220802813
0.92,3.61892269570475,302.490934005164,303.924144245693,-0.00890948512495809,1.80838812838818,1.79322719573975,-0.657617203402603,9.33575026264447
0.93,3.93568012637181,302.502577042578,303.924144245693,0.0276241560432029,1.83601189091126,1.85906577110291,-0.903549971040554,9.5701182021026
0.94,4.25244745601163,302.500942896587,303.924144245693,0.00602258822420842,1.74818379053127,1.82246768474579,-0.77485319716199,9.86732315738217
0.95,4.5692063123836,302.565136507787,303.924144245693,-0.018142575281501,1.51712989839722,1.60671889781952,-0.628755924983107,9.97519571660474
0.96,4.88597567374656,302.576655714075,303.924144245693,-0.112617428962582,1.69346733964927,1.72901487350464,-0.0462826475202371,9.64388992122555
0.97,5.20273943317327,302.51464032394,303.924144245693,-0.0963073764220858,1.77299328487107,1.74840021133423,-0.1390793332945,9.27979097908837
0.98,5.51950121179057,302.47475106074,303.924144245693,-0.111360635067449,1.71515611062635,1.70766949653625,-0.0530141892720799,9.37803991129916
0.99,5.83624654055197,302.359775351991,303.924144245693,-0.020503785645851,1.88578671273861,1.87397980690002,-0.600032857239622,9.36291485601145
1,6.15300552236286,302.379718593496,303.924144245693,0.0177757327663415,1.92273426348034,1.90418231487274,-0.829769088689369,9.31699591633761
1.01,0.186591883123612,302.507728109305,303.924144245693,0.0316672943589115,1.7972498410521,1.86223220825195,-0.898540699067558,9.80240858409207
1.02,0.503357100669259,302.58406001512,303.924144245693,0.0132856525750764,1.79510258576578,1.8857501745224,-0.803590912541912,9.95574949141024
1.03,0.820109552030637,302.624614301625,303.924144245693,0.133189788034522,1.67830989997606,1.77302503585815,-1.55442542986814,10.0047739060472
1.04,1.13688644742631,302.647086758556,303.924144245693,-0.018741489599673,1.6392526435929,1.73005855083466,-0.63493514446713,9.96902298134107
1.05,1.45363449991684,302.408012662812,303.924144245693,-0.135419868950877,1.59315798418794,1.56087601184845,0.060567059526498,9.25732695763795
1.06,1.77039419987535,302.464957883271,303.924144245693,-0.0330997837886455,1.70256491216154,1.60550904273987,-0.5476865010728,8.86535290959729
1.07,2.08715830087733,302.456098277697,303.924144245693,-0.0328572404762241,1.79446331977191,1.7235141992569,-0.547294550991601,9.01120162890864
1.08,2.40389991222202,302.328581713408,303.924144245693,-0.0342424481100438,1.90404355328216,1.90929114818573,-0.546538908163557,9.4887516327562
1.09,2.72067284406272,302.440090931008,303.924144245693,0.0195531428481615,1.86444887119842,1.81718420982361,-0.866154155259149,9.15489749303959
1.1,3.0374325468597,302.589352784986,303.924144245693,-0.0150001666335865,1.89072006544443,1.91497766971588,-0.652041076823545,9.58520922929662
1.11,3.35419436172411,302.497877653276,303.924144245693,0.0779008313595907,1.57777679670121,1.73748445510864,-1.22249370622606,10.4024466093781
1.12,3.67095964350605,302.677423660599,303.924144245693,0.0102695903946292,1.68302438664575,1.76513504981995,-0.828449882797115,9.9422507172626
1.13,3.98773371826706,302.638964673251,303.924144245693,-0.0881585970515298,1.64938952467089,1.73576366901398,-0.244887762645284,9.95580080661037
1.14,4.30448821403812,302.478568718325,303.924144245693,-0.0277877340733027,1.70679016339544,1.63487195968628,-0.613443564299646,9.01912587012965
1.15,4.62125218366696,302.401853137632,303.924144245693,-0.0344440608857459,1.7564767764409,1.64811456203461,-0.558185392612461,8.79117795433055
1.16,4.93801068364093,302.464375320223,303.924144245693,0.0360594490705793,1.82448786664314,1.76273238658905,-0.996860755954822,9.06473493777639
1.17,5.25476659508643,302.297963319591,303.924144245693,0.0100670696333089,1.90179088390328,1.92502284049988,-0.847133010242459,9.57605906130834
1.18,5.57153135633607,302.504625174951,303.924144245693,0.0258275510236877,1.81452922481178,1.83203530311584,-0.925775754212924,9.52927525446266
1.19,5.88829504329276,302.481246414858,303.924144245693,-0.0268649196399977,1.65279808017399,1.72981107234955,-0.651361023522747,9.88508056835798
1.2,6.20505036344114,302.54759544191,303.924144245693,-0.00441245736970419,1.62857930407635,1.74729943275452,-0.763081558028242,10.1488866395147
1.21,0.238629700220379,302.594867813899,303.924144245693,-0.0616214886123581,1.66437808330936,1.7708625793457,-0.397234401510628,10.0801565706867
1.22,0.555377426247745,302.517868392431,303.924144245693,-0.0994004461301337,1.67589093084466,1.64212608337402,-0.161719807490746,9.26122332618887
1.23,0.87213590241219,302.472155061936,303.924144245693,-0.00289727496444808,1.64858087286712,1.62420415878296,-0.7357171335246,9.31525095256439
1.24,1.18888502006588,302.383770079041,303.924144245693,-0.0921499214792368,1.85125886104879,1.79821538925171,-0.178371027705785,9.14956302302819
1.25,1.50563937097034,302.494451563636,303.924144245693,0.00884520183058035,1.81846194793203,1.78063237667084,-0.788338248226047,9.24157292189362
1.26,1.82240671908505,302.461484221459,303.924144245693,0.0815331209426938,1.77927010521127,1.81203162670135,-1.21069948415413,9.64794446270097
1.27,2.13916530759521,302.566766542642,303.924144245693,0.00381481573883324,1.88188580790417,1.90964448451996,-0.751470347832959,9.61620610946085
1.28,2.45591680103769,302.546686445802,303.924144245693,0.00121112154928213,1.75396328594504,1.81265962123871,-0.732563313529027,9.82550363028622
1.29,2.77268319164219,302.589207438932,303.924144245693,-0.0588392163852416,1.68091223652701,1.74543917179108,-0.388259397974221,9.86529196386854
1.3,3.08943251440904,302.56299544309,303.924144245693,-0.164913057418581,1.58049282142654,1.66688215732574,0.243459460105294,10.028493912272
1.31,3.40621248145915,302.527477143627,303.924144245693,-0.0924586774629897,1.63680008408168,1.63437151908875,-0.196323301393774,9.46370164751755
1.32,3.72298276455193,302.38008776703,303.924144245693,-0.0722325612316692,1.7037172051156,1.61459791660309,-0.311286884944687,8.91973634397118
1.33,4.03973902695456,302.426292441176,303.924144245693,-0.0409902036188304,1.88790762279502,1.81245648860931,-0.501624102296181,8.99674953744434
1.34,4.35649655418091,302.469239781331,303.924144245693,-0.0721981698391152,1.84212605907331,1.84060418605804,-0.293151002554418,9.43549404801045
1.35,4.67324375206675,302.49885198869,303.924144245693,0.0770763125167457,1.99983745825745,2.01992225646973,-1.20288773393278,9.5778208871521
1.36,4.99001768153705,302.546314916328,303.924144245693,0.0633283021124188,1.77631442343856,1.86083400249481,-1.12892495648508,9.95072408878953
1.37,5.30678416611929,302.537748501063,303.924144245693,-0.043841079311061,1.58531477122838,1.71836698055267,-0.469367981816482,10.2409026670954
