t,theta,omega,r,i_d,i_q,i_q_ref,v_d,v_q
0,0,0,109.327948648464,-2.30246918656277e-24,0,0,0,0
0.01,0.0638206775679432,110.70329204615,109.327948648464,-0.0791545808082204,-2.95706413015419,-4.28005599975586,0.384857710396127,-4.99962093072356
0.02,0.177576793050781,108.84405631354,109.327948648464,0.00207838138129027,0.67285009683747,0.687879383563995,-0.0857171092830925,3.21881638181021
0.03,0.291490390601491,108.802897143402,109.327948648464,-0.0554791148849109,0.730462362419792,0.756444871425629,0.278393149048686,3.334214299644
0.04,0.405413048201915,108.803375518206,109.327948648464,0.0432389179850909,0.650137694352657,0.633958041667938,-0.314500629218899,3.10994743837638
0.05,0.519322348020579,108.791701087714,109.327948648464,0.0710731782846556,0.552944838137889,0.601453363895416,-0.487241781004528,3.5290981052089
0.06,0.633233834710297,108.820520757328,109.327948648464,-0.0216647232556941,0.662677980710788,0.603297352790833,0.0724403611920415,2.90884219286888
0.07,0.747173986819083,108.772141890268,109.327948648464,0.0590662537594193,0.668436414755713,0.702631950378418,-0.404886027316377,3.47115152214981
0.08,0.861101657751509,108.796253911912,109.327948648464,-0.00662409838035263,0.638981426394933,0.643230795860291,-0.0255060140869713,3.31262292292256
0.09,0.975023027166225,108.852349742558,109.327948648464,0.0312903167993656,0.638749929753232,0.610850214958191,-0.261564398353389,3.12756929280385
0.1,1.08894386257024,108.764738705369,109.327948648464,0.000148469748611768,0.651387727420374,0.679934978485107,-0.0744092488099492,3.47071959745155
0.11,1.20288211415897,108.767646696802,109.327948648464,-0.00228257271726762,0.636777527985847,0.610811829566956,-0.0583571146223233,3.15140649093483
0.12,1.31680527067201,108.810910398793,109.327948648464,-0.0342490073496885,0.664644330711557,0.710485279560089,0.139144955131288,3.61005069735507
0.13,1.4307437955544,108.788467349898,109.327948648464,-0.0991772180166812,0.555126461668727,0.612173497676849,0.518781513847996,3.66381640838106
0.14,1.54466524100358,108.822613755345,109.327948648464,-0.0321466076304028,0.672945823588746,0.665619611740112,0.123768213030875,3.2769968149674
0.15,1.65860884619587,108.805582435378,109.327948648464,0.0141081675734154,0.667256026387624,0.672781705856323,-0.153424713537776,3.33954091641099
0.16,1.77254587165946,108.818288733548,109.327948648464,-0.0679939232250845,0.611779542435921,0.585761427879333,0.335488733301343,3.15765114600044
0.17,1.88647652986913,108.789037309004,109.327948648464,-0.00709088903330168,0.596423526873756,0.578888297080994,-0.0352649055015071,3.21036214637785
0.18,2.00039807501403,108.836393423431,109.327948648464,0.077529072662394,0.636729970076851,0.663261830806732,-0.537152908993495,3.47417022163652
0.19,2.11433138124991,108.773836448703,109.327948648464,0.0889277166704908,0.763824558068492,0.72751373052597,-0.600859533678528,3.10037668204728
0.2,2.22826749629161,108.784921166156,109.327948648464,0.0129603193022063,0.694046201254891,0.66316682100296,-0.141563864829155,3.1389834993382
0.21,2.34220266151499,108.753072125449,109.327948648464,-0.0770721103840809,0.593065027208229,0.625242054462433,0.38433254360138,3.51765932123689
0.22,2.45611702185017,108.874509690281,109.327948648464,0.0050715610231323,0.679450695041313,0.641471385955811,-0.10919345974527,3.10928951294747
0.23,2.57004598430866,108.815053818838,109.327948648464,0.0448722541110705,0.677795422998672,0.695064187049866,-0.331553175111403,3.44644942237917
0.24,2.68398429535677,108.729389127916,109.327948648464,-0.0369190743125,0.631316026448042,0.658934712409973,0.153369595761998,3.51519442673284
0.25,2.79793426558088,108.827073014911,109.327948648464,0.0440300371222323,0.656455322823367,0.640702247619629,-0.336644425170169,3.22886417880604
0.26,2.91186076155988,108.807400658752,109.327948648464,0.0697944395046327,0.563584244322042,0.614148020744324,-0.496530106779469,3.62537457218746
0.27,3.02577526372515,108.82838916751,109.327948648464,0.0268228812930655,0.683544312462274,0.700124979019165,-0.230684069088085,3.44632438537331
0.28,3.1397199413952,108.807543671375,109.327948648464,0.0389544230300222,0.678854367089962,0.69391793012619,-0.288851896008963,3.42669049527152
0.29,3.25365721921656,108.75372369833,109.327948648464,-0.0628571490599288,0.614952895461161,0.660453259944916,0.32071260712595,3.61554324827775
0.3,3.36760124917995,108.898687226169,109.327948648464,-0.0515573938915791,0.627619837720023,0.626401424407959,0.245577362120377,3.30628653809816
0.31,3.4815290541462,108.825561148783,109.327948648464,0.0896495138728113,0.635458467769464,0.615305244922638,-0.601923112176974,3.18844180231245
0.32,3.59547506207179,108.77604192033,109.327948648464,-0.016145639940392,0.637006895413006,0.599906921386719,0.0389238984680799,3.07972207117426
0.33,3.70940938900352,108.807306406918,109.327948648464,-0.0109205858828876,0.770648752694736,0.734121024608612,0.0130207124561495,3.09329460530145
0.34,3.82334245871844,108.822489021505,109.327948648464,-0.0649455440682409,0.604342598309139,0.67197597026825,0.316052060064479,3.71435395173899
0.35,3.93726679286442,108.856836141286,109.327948648464,-0.0175845557754718,0.682250192465,0.651541769504547,0.0316895886505042,3.11864654119109
0.36,4.05120097856491,108.740910151036,109.327948648464,0.0102523063540434,0.633347881787148,0.629176616668701,-0.131979841336471,3.2818363240104
0.37,4.16512791087909,108.821172301462,109.327948648464,-0.0417722882445841,0.763323368533928,0.729335606098175,0.176270858255212,3.12892891860382
0.38,4.2790777454364,108.866983377466,109.327948648464,-0.0258289941840571,0.637997383114619,0.625332891941071,0.0891412421587196,3.22885672915936
0.39,4.39300666864366,108.847469671132,109.327948648464,0.0979801667008876,0.632178350934288,0.620288968086243,-0.647765144989631,3.22060216359644
0.4,4.50694105220349,108.776160720065,109.327948648464,0.0823938425894209,0.764571081654393,0.723778903484344,-0.554309367915274,3.04890411679086
0.41,4.62088378017879,108.750094219994,109.327948648464,0.0478947989095611,0.629965730634152,0.617359817028046,-0.368332224228595,3.22028502077832
0.42,4.73482249532003,108.768045329839,109.327948648464,-0.0606444360271261,0.60351857714589,0.652852356433868,0.273822903745408,3.5879339271521
0.43,4.8487467438824,108.840092359954,109.327948648464,0.0035253898031064,0.678298441762547,0.669499397277832,-0.11356187250929,3.23327891475425
0.44,4.96267899264473,108.731436559697,109.327948648464,0.0256977341928347,0.641926580593245,0.682657361030579,-0.241699096554892,3.53235154524051
0.45,5.07660866314142,108.776003901362,109.327948648464,-0.0350858961038646,0.663394802943098,0.698502719402313,0.13708855190397,3.52256867197245
0.46,5.19053968980978,108.741088646798,109.327948648464,0.0216814552755371,0.630131559236884,0.645458579063416,-0.2165582740488,3.41271557645562
0.47,5.30446957532803,108.874209201254,109.327948648464,-0.0315525419869975,0.59629496998206,0.654122650623322,0.0765401560309669,3.65852116677887
0.48,5.41840024967205,108.803269165361,109.327948648464,0.0551235111354983,0.636656048933786,0.60933256149292,-0.412645143813521,3.14474521731847
0.49,5.53234258808015,108.75001306757,109.327948648464,-0.0353351665487636,0.736455990077086,0.670727729797363,0.133367989047187,2.90655196665782
0.5,5.64628494107359,108.851003341417,109.327948648464,-0.0491794337949658,0.653829035486013,0.677878618240356,0.221113766775371,3.44370500809002
0.51,5.76021784419757,108.881411194749,109.327948648464,-0.00109937807921939,0.644937717487776,0.617178797721863,-0.0776900235612998,3.1191628135155
0.52,5.87413728526207,108.78860087182,109.327948648464,0.0458557930924576,0.653322882874711,0.669800639152527,-0.352934921542078,3.3904205622688
0.53,5.98808530949137,108.773513530022,109.327948648464,0.0644969883137014,0.764548042163822,0.715150535106659,-0.45483839267977,2.98166223530545
0.54,6.10201507660871,108.764447695617,109.327948648464,0.0154083995411181,0.732069216344916,0.677575826644897,-0.184706183453727,2.97200704630679
0.55,6.21594941323167,108.81136890486,109.327948648464,-0.108293488040456,0.555880072061138,0.60077440738678,0.533750474107522,3.5618430762368
0.56,0.0466910368184887,108.86476360915,109.327948648464,-0.0330505964474262,0.685703124056177,0.647818207740784,0.0889446104638193,3.05550733481753
0.57,0.160629074296759,108.775753020971,109.327948648464,0.0849778673417425,0.699753311972707,0.699141383171082,-0.595756406560306,3.27825038716255
0.58,0.274567846133093,108.714995267623,109.327948648464,-0.0397068183190124,0.61977574561796,0.645916521549225,0.163413103153703,3.4467272484481
0.59,0.38850795408061,108.897066731927,109.327948648464,-0.0545376879660834,0.627842219560783,0.605259239673615,0.239828634118002,3.14277125117573
0.6,0.502431767929277,108.888288922181,109.327948648464,0.075973485624524,0.683507865398821,0.731422543525696,-0.541361308134495,3.56311348879274
0.61,0.61635343759765,108.769544484543,109.327948648464,0.0660232051674983,0.748316528771596,0.697314321994781,-0.480285104473574,2.99317183414068
0.62,0.730291697418276,108.786946029322,109.327948648464,0.0455796803806308,0.641609114786221,0.619056284427643,-0.377513730700827,3.17172181999391
0.63,0.844220215843655,108.740594235165,109.327948648464,-0.0864619171558131,0.599976338696138,0.693504452705383,0.400920604264412,3.87512239081433
0.64,0.958132737911968,108.840844685887,109.327948648464,0.0629438754034309,0.647976131181857,0.660311043262482,-0.483070625850348,3.4040112430785
0.65,1.07206933504129,108.820876262357,109.327948648464,0.000774073862689822,0.74712589190563,0.768983662128448,-0.0953795594479775,3.44921197721889
0.66,1.18600628117754,108.75982565247,109.327948648464,-0.0856706136323949,0.633148274015193,0.650053679943085,0.429908120811198,3.42821802451041
0.67,1.2999318529226,108.784997495063,109.327948648464,0.0252352017474534,0.673626881491048,0.712487697601318,-0.239874628791988,3.57956265804992
0.68,1.41384815736733,108.857409058188,109.327948648464,0.0249653308573466,0.676874082389634,0.675364792346954,-0.245543062204975,3.34849888111584
0.69,1.52777768007572,108.741390755698,109.327948648464,0.0390577055817024,0.635141879993954,0.67347115278244,-0.304114009706877,3.58629818053828
0.7,1.64171765334169,108.744337944098,109.327948648464,0.0164252685723447,0.63857511680233,0.657327651977539,-0.164977797158645,3.46910437498772
0.71,1.75565275240757,108.84570367195,109.327948648464,-0.0185837564491673,0.67040335056943,0.702779293060303,0.0201509406292898,3.5578525991816
0.72,1.86958443004548,108.820052176522,109.327948648464,-0.0514070038938002,0.587196100526338,0.587530255317688,0.214258751287601,3.35252395412783
0.73,1.98350442906568,108.737055460074,109.327948648464,0.0232693278085386,0.639288639059786,0.673631310462952,-0.214586262007969,3.56422696333567
0.74,2.09743212262388,108.740826475728,109.327948648464,-0.0259786111534869,0.640187972856136,0.65649425983429,0.0800787713143981,3.47539053135164
0.75,2.2113910193257,108.759991537393,109.327948648464,-0.037345056243314,0.61864887665589,0.646448016166687,0.146643671275552,3.51232596032942
0.76,2.32533212494422,108.850578148232,109.327948648464,-0.028931356245107,0.568510142430462,0.626013696193695,0.0880144058317224,3.67051233976068
0.77,2.43925327581242,108.803142558156,109.327948648464,-0.0371898271986423,0.669197657736206,0.653986155986786,0.156086905139777,3.2357618958173
0.78,2.55319713380807,108.806327417042,109.327948648464,0.0105467747073511,0.655302788165906,0.628504574298859,-0.145809343190849,3.15856221561556
0.79,2.6671282292755,108.838597695157,109.327948648464,-0.0129840846119632,0.652945465130513,0.633555233478546,-0.00130265486333016,3.21953693399019
0.8,2.78106473497468,108.81058473421,109.327948648464,-0.024565636113621,0.593095154498476,0.57065361738205,0.0673005269443817,3.19293745433265
0.81,2.89498453567823,108.801031033149,109.327948648464,0.0595920721561135,0.639559847091048,0.684746384620667,-0.429257628366529,3.6014269997468
0.82,3.00891412059615,108.800401816063,109.327948648464,-0.00906691938147552,0.710889666074128,0.682039797306061,0.00340625498925277,3.16648441582665
0.83,3.12287331372628,108.820675083073,109.327948648464,0.0543621355621708,0.672921929267286,0.674500226974487,-0.385726659385392,3.32134937179662
0.84,3.23682292842337,108.827411491159,109.327948648464,0.031059553876787,0.505494359511273,0.522068321704865,-0.246570906106799,3.38940200515839
0.85,3.35074185360473,108.883674486214,109.327948648464,0.0646753595801568,0.658980495728238,0.639683961868286,-0.459995942169949,3.17536795420712
0.86,3.46466570727559,108.733826678489,109.327948648464,0.00202511567974983,0.644690895591253,0.681398153305054,-0.0726109526717371,3.52993059706387
0.87,3.57859519784016,108.738257396872,109.327948648464,0.0218631137661292,0.636297451732211,0.660963952541351,-0.198751134359591,3.47975497790516
0.88,3.69252837192326,108.739362768277,109.327948648464,0.0199531935923115,0.624807020798656,0.647654592990875,-0.182198140257789,3.47528785733698
0.89,3.80646459508977,108.850229652148,109.327948648464,0.0523445049043601,0.585162040559838,0.611050963401794,-0.38791272631086,3.47228782550064
0.9,3.92038009705535,108.792340736116,109.327948648464,0.0309749335530456,0.778886143784119,0.738749921321869,-0.23895825171891,3.10147315950231
0.91,4.0343268924353,108.750978149063,109.327948648464,-0.0607780561870003,0.736269981165321,0.672201097011566,0.309965741954828,2.94838707780012
0.92,4.14826071306778,108.878517366789,109.327948648464,-0.0614962567470584,0.660195682274883,0.689491748809814,0.301699086473405,3.51852259480011
0.93,4.2621890007308,108.862439707774,109.327948648464,0.0224798881084159,0.669191318043817,0.676701843738556,-0.209812051165198,3.38211413445471
0.94,4.37611996830502,108.817614386063,109.327948648464,0.0314293782081846,0.651548430996606,0.614161610603333,-0.263564121040719,3.1054585598919
0.95,4.49005383513642,108.801708098619,109.327948648464,-0.0405291760563831,0.733346919456797,0.751966416835785,0.168737653890203,3.45103586672578
0.96,4.60400133124426,108.751623395346,109.327948648464,-0.0501108726945688,0.616435889425117,0.654173970222473,0.232453479351349,3.55595857537219
0.97,4.71793646864712,108.816010803126,109.327948648464,-0.0315713682730467,0.602108291186907,0.598747372627258,0.112934563191964,3.2976782423154
0.98,4.83185154244738,108.84540436609,109.327948648464,-0.0558437260760883,0.685993622975954,0.659160375595093,0.292255709015625,3.17257897053055
0.99,4.94579828073481,108.745873485778,109.327948648464,0.0926958223937462,0.62693981945257,0.621043562889099,-0.597173025099433,3.28367121856264
1,5.05973989709957,108.723470807033,109.327948648464,-0.0382985036108311,0.617121957000577,0.641766726970673,0.188556732687839,3.46735323457862
1.01,5.17367957338965,108.777871308,109.327948648464,-0.0458670232666325,0.581231277957479,0.566071808338165,0.206817342956954,3.21183111263675
1.02,5.28760308370841,108.825527874501,109.327948648464,0.0507088296265001,0.646446152648817,0.671041071414948,-0.382629589952014,3.44961392357864
1.03,5.401542554348,108.797047943822,109.327948648464,0.0365164030948584,0.652036999451534,0.640760600566864,-0.302936972236159,3.22986065272016
1.04,5.5154869237755,108.814673744186,109.327948648464,0.0254166744983361,0.637202730656489,0.573771417140961,-0.231237045762391,2.90951151233258
1.05,5.62942104193383,108.786742930017,109.327948648464,-0.11573327932871,0.584058945129508,0.590847432613373,0.616809879854512,3.33028814362161
1.06,5.74335129126253,108.87553335396,109.327948648464,0.0474149553049761,0.651983487982234,0.611186861991882,-0.348323525318216,3.03127657633661
1.07,5.85727453293696,108.771543624847,109.327948648464,-0.00481584892279505,0.646421285628568,0.637713968753815,-0.0239872558275996,3.24301054800099
1.08,5.97122210196468,108.751537196508,109.327948648464,0.0108255394375949,0.63942714175249,0.65749990940094,-0.108368889532933,3.39146849864184
1.09,6.08515581249708,108.750920519411,109.327948648464,-0.0106918685433906,0.623156714900653,0.626169383525848,0.0215939106973006,3.30468988715938
1.1,6.19907372066369,108.870538141482,109.327948648464,0.107600046861455,0.633344432461396,0.655790448188782,-0.704375625443832,3.42681405051271
1.11,0.0298121551083579,108.84003794473,109.327948648464,-0.0280261840800979,0.757432815107957,0.752934634685516,0.13117322563104,3.27769994142574
1.12,0.14375538946698,108.771066789467,109.327948648464,0.0572846380680625,0.692300690857848,0.664164125919342,-0.394529027019584,3.13061594108478
1.13,0.257689297179169,108.857306767611,109.327948648464,-0.000670332573777105,0.636367377544847,0.573575794696808,-0.05985312653361,2.93247330322746
1.14,0.371615538693234,108.882657241009,109.327948648464,0.0347295527478648,0.666800248819876,0.636292219161987,-0.296864683076409,3.12577996787589
1.15,0.485541487843815,108.839919550672,109.327948648464,0.00101211560686895,0.691338539364624,0.702858984470367,-0.103767143010894,3.38091000552751
1.16,0.599485578822126,108.810563962648,109.327948648464,-0.0547063468760934,0.733020934896784,0.740982353687286,0.232020821917203,3.3489270206127
1.17,0.713440813624905,108.789011518841,109.327948648464,0.0499922285713017,0.642674518654539,0.616666197776794,-0.377239441054204,3.12197032499352
1.18,0.827356586589513,108.784352489457,109.327948648464,-0.0218692330438358,0.61667190491813,0.666623175144196,0.0493052781505451,3.59964767184706
1.19,0.94128316731776,108.867241168632,109.327948648464,-0.0540682765917928,0.679964703757614,0.603236138820648,0.254082472032367,2.83633475762059
1.2,1.05521822238048,108.821751305687,109.327948648464,0.0203304877773851,0.737077440626378,0.740453779697418,-0.175900060653079,3.32263052259149
1.21,1.16915034470632,108.813103055862,109.327948648464,-0.031286734467298,0.665221709431831,0.694986283779144,0.127377402258934,3.49993039183041
1.22,1.28308753426173,108.860492462177,109.327948648464,0.00343121640570157,0.59691780798814,0.577129006385803,-0.113709679472906,3.19276212341223
1.23,1.397018615948,108.833124695801,109.327948648464,0.0788820253627485,0.634191118679473,0.604130327701569,-0.581578655239386,3.11085812035146
1.24,1.51094617396222,108.73350507991,109.327948648464,0.0267800758066651,0.632835561423885,0.64671391248703,-0.23785199195671,3.39016694263106
1.25,1.62487876739139,108.74551589296,109.327948648464,0.00592891646644703,0.634396125776031,0.649359464645386,-0.120416873978558,3.41145948939407
1.26,1.73881113262144,108.763682169555,109.327948648464,-0.0850012707843669,0.59059118768101,0.656374871730804,0.420505928356538,3.72400301961451
1.27,1.85274683290423,108.868892365008,109.327948648464,0.036774766798098,0.65572108961937,0.623294174671173,-0.320701606114506,3.11156036339477
1.28,1.9666775710888,108.767216838668,109.327948648464,0.0141346269396227,0.637855809095582,0.613767445087433,-0.170274552825554,3.16574377399588
1.29,2.08062502470536,108.761311267444,109.327948648464,-0.0401727080892059,0.635059744721554,0.655854105949402,0.174844903318995,3.42290437611116
1.3,2.19455777562034,108.791858950041,109.327948648464,0.0335931754474495,0.656543588753591,0.672388255596161,-0.274576085888091,3.39801945791205
1.31,2.30848703985994,108.830425258176,109.327948648464,0.0430190096344335,0.588660449046357,0.625339984893799,-0.348615298327685,3.51370324071026
1.32,2.42239644874742,108.819612287295,109.327948648464,0.0458991707103289,0.741027191833327,0.765685498714447,-0.342705081134977,3.47702412927027
1.33,2.53633425882269,108.781451378817,109.327948648464,-0.0345060689723647,0.763235021769756,0.71476411819458,0.136791300465595,3.0428601702
1.34,2.65026952180413,108.83913771727,109.327948648464,-0.0218851168841157,0.647036799632043,0.641192078590393,0.06759999795247,3.30506899262538
1.35,2.76419917299575,108.882956829682,109.327948648464,0.0237380045045107,0.669213823327709,0.638711392879486,-0.22879912241732,3.14663410831241
