t,theta,omega,r,i_d,i_q,i_q_ref,v_d,v_q
0,0,0,59.9122430870812,-2.30862079912537e-24,0,0,0,0
0.01,0.0461176261041158,59.9320294283992,59.9122430870812,-0.0826481072636275,0.062928111973068,-0.0595284104347229,0.461895941701822,0.882303140963543
0.02,0.108490120161749,59.5074413125138,59.9122430870812,-0.103993043011297,0.324470988301545,0.400421559810638,0.632027295602777,2.17331319750357
0.03,0.170870484928693,59.59492507027,59.9122430870812,0.0236346297256572,0.439034880406816,0.412889540195465,-0.13704486983627,1.60448359672012
0.04,0.233275600612454,59.5733985541482,59.9122430870812,0.022528842877405,0.364708555957876,0.398127943277359,-0.0802402053656867,2.00858643919391
0.05,0.295684443072116,59.6070700157005,59.9122430870812,0.0401143260955107,0.412017905268499,0.41256046295166,-0.220980896745608,1.82903860989014
0.06,0.358080459533436,59.6096654739477,59.9122430870812,0.0779334031931244,0.429038175853784,0.42472916841507,-0.473795221549282,1.82802824909446
0.07,0.420493103137183,59.5672635527336,59.9122430870812,-0.0116890753510042,0.471329001305387,0.450995117425919,0.0921335376705905,1.76715325233931
0.08,0.482892236816273,59.6275216753845,59.9122430870812,-0.0132269981322307,0.389787535774648,0.401602566242218,0.0901311537978702,1.97216487983802
0.09,0.545318856416022,59.6382070257875,59.9122430870812,0.0867468641556563,0.384397110237028,0.340257734060287,-0.473685372248304,1.65162205400436
0.1,0.607736310407334,59.5485938345098,59.9122430870812,-0.0188478952658876,0.342935270854172,0.343330949544907,0.125226093534541,1.91092277921309
0.11,0.670142613912603,59.6461136058519,59.9122430870812,0.00281428175963353,0.368442354679355,0.352688014507294,-0.0392107986468324,1.8392624890457
0.12,0.732560032542966,59.5893860299123,59.9122430870812,-0.00608269604363931,0.466979799025012,0.419716268777847,0.040538347027115,1.66397480989692
0.13,0.794981164414885,59.6302523907841,59.9122430870812,-0.0363315313108044,0.432983808745174,0.412164211273193,0.221046313622126,1.80134981266277
0.14,0.857407197033515,59.5907358268223,59.9122430870812,0.0150425336420697,0.340595193620028,0.33716231584549,-0.103369815568113,1.92222436142537
0.15,0.919817150117487,59.6136787729207,59.9122430870812,-0.0108050483040497,0.384634480205572,0.397500425577164,0.0464111872634945,2.01372456306571
0.16,0.982231939987007,59.6121520129648,59.9122430870812,-0.0344173684433275,0.350747541415648,0.397124141454697,0.159080381066952,2.23443966716256
0.17,1.04465482663293,59.6229516013714,59.9122430870812,-0.0558368073652672,0.391370631371272,0.352027803659439,0.310253473572073,1.71085370117377
0.18,1.10708374536734,59.5436372767246,59.9122430870812,-0.0202532382335129,0.299655844851708,0.283642679452896,0.146650850550291,1.82418465615352
0.19,1.16950888860645,59.6428456005661,59.9122430870812,0.0517573940622963,0.462672131041498,0.391546159982681,-0.348792836075673,1.50378443324663
0.2,1.23192249542109,59.5586187627042,59.9122430870812,-0.0427122202745555,0.337150399215873,0.361354649066925,0.236142732420592,2.06192414611981
0.21,1.29435451965246,59.6266097135214,59.9122430870812,-0.0919969267670886,0.356426253086383,0.377260625362396,0.543314662665073,2.04833707790137
0.22,1.3567601357162,59.6017875184343,59.9122430870812,-0.0617353011524994,0.447537552933164,0.37676015496254,0.375673800107622,1.49980569595421
0.23,1.41917645427322,59.5390902767993,59.9122430870812,-0.00533589678150084,0.322068863238069,0.304372280836105,0.039377742670399,1.82701572097728
0.24,1.48161228936249,59.6396788803766,59.9122430870812,0.0192553744515439,0.425790250470953,0.429404884576797,-0.15580380865341,1.93803418927254
0.25,1.54402082714254,59.5865865049879,59.9122430870812,0.0283921742484736,0.403095531859784,0.392935335636139,-0.21673045549856,1.84931253938215
0.26,1.60643932895779,59.6310491961458,59.9122430870812,-0.052025632588871,0.439590519829041,0.396183580160141,0.254673981635242,1.67475135460151
0.27,1.66885476602687,59.6029607838099,59.9122430870812,0.0154224288928885,0.377794455936499,0.340524077415466,-0.148945200338632,1.69431752051293
0.28,1.73127737128451,59.59368418806,59.9122430870812,0.0321836204097048,0.36559498916396,0.369285434484482,-0.229006135941331,1.9553776090992
0.29,1.7937027137541,59.6024193560132,59.9122430870812,-0.0303818399190247,0.391810012844237,0.375141978263855,0.118333268761229,1.82060176657666
0.3,1.85611510157094,59.545639968392,59.9122430870812,0.0397457560868907,0.288793188462095,0.31585231423378,-0.292890163066728,2.0848613101977
0.31,1.91853802170838,59.5901017931238,59.9122430870812,0.00521027633268253,0.430430885704243,0.363758385181427,-0.0642283037314819,1.53514700388315
0.32,1.98095555431629,59.6065986680808,59.9122430870812,-0.0939214410094558,0.405707534765458,0.348048210144043,0.524866164725915,1.56654284521811
0.33,2.04337879960812,59.6615066153782,59.9122430870812,0.0606723291968697,0.420243862579609,0.373021304607391,-0.414983458309119,1.64845394434122
0.34,2.10580072322036,59.5563067908078,59.9122430870812,0.000316788116700356,0.342087862211844,0.335445076227188,-0.0660052280464691,1.87545654669783
0.35,2.16820958412571,59.5625252482151,59.9122430870812,0.014062572421364,0.339637436972137,0.345106959342957,-0.169766707689413,1.96819605871011
0.36,2.23063459713726,59.5581166399097,59.9122430870812,0.0459129672467034,0.341123839216614,0.334415823221207,-0.357322803466083,1.89936328811391
0.37,2.29304714398689,59.616505171408,59.9122430870812,-0.0569597131298935,0.377443669513282,0.358000099658966,0.293136106468745,1.81451286625808
0.38,2.35547394964139,59.6375510218781,59.9122430870812,0.00529999040078005,0.391724127896529,0.362772643566132,-0.0798838730757258,1.77179384201506
0.39,2.41788726397904,59.6057027562663,59.9122430870812,-0.00609377613150316,0.451907005057035,0.401882708072662,-0.00295751451484646,1.62770863521735
0.4,2.48030868221111,59.6079473231308,59.9122430870812,-0.0907621386510926,0.328821488220011,0.375118136405945,0.498246335504112,2.22475016230122
0.41,2.54272562817297,59.6124924240325,59.9122430870812,-0.0202822210766106,0.391148003581392,0.359690248966217,0.0879699351576188,1.75504217436646
0.42,2.60514839350533,59.6269309675311,59.9122430870812,-0.0197315478244692,0.40458745872331,0.37964990735054,0.127978668720332,1.77666375825939
0.43,2.6675897158664,59.643428677347,59.9122430870812,-0.00573342813865006,0.453055682279632,0.394206434488297,0.00498499511777577,1.55862312923519
0.44,2.73000274156747,59.6087737159491,59.9122430870812,-0.0175396956077079,0.423564903320348,0.373855501413345,0.0874169669132246,1.60119633354162
0.45,2.79240964222043,59.5695289436263,59.9122430870812,-0.0279794688731409,0.39389566689012,0.405163139104843,0.14184972555915,2.00902325953997
0.46,2.85482262425398,59.5701892225945,59.9122430870812,0.0332898206706146,0.468110778963368,0.435990929603577,-0.231430071700866,1.74484832141358
0.47,2.91724470275333,59.6090149225236,59.9122430870812,0.0122173470730584,0.37207314716568,0.386270731687546,-0.0795383317619402,2.0262227650867
0.48,2.97966897055001,59.6200608505568,59.9122430870812,-0.0171297342501556,0.443587549737759,0.374252825975418,0.0558842356092389,1.52141612673421
0.49,3.04208098891251,59.6029401767675,59.9122430870812,0.0730644458366398,0.407372194506877,0.376332432031631,-0.484434680269672,1.74394739990464
0.5,3.10451173399966,59.6245592093571,59.9122430870812,-0.0195600760483161,0.430771753205214,0.368080228567123,0.0401283733907572,1.55983882830563
0.51,3.16692181394766,59.5607230577037,59.9122430870812,-0.0149189431194801,0.396279420620793,0.414648324251175,0.0020557479589224,2.03913790972181
0.52,3.22933937810182,59.6397524243168,59.9122430870812,-0.0101710893904179,0.40480577305724,0.389012962579727,-0.0101007907817018,1.860035013205
0.53,3.29176609824222,59.6251909442551,59.9122430870812,-0.0623184035359821,0.416394592899715,0.402626752853394,0.289131000303671,1.8517734390478
0.54,3.35418178811404,59.6611093367743,59.9122430870812,0.00878607098521125,0.408629945746995,0.410758584737778,-0.132217757768896,1.94980889363155
0.55,3.41659050738494,59.6224867489204,59.9122430870812,0.00573851418908078,0.458987357276383,0.416914463043213,-0.0598949540654016,1.72205492839081
0.56,3.47901010177056,59.6225186766966,59.9122430870812,-0.0331512414202241,0.428475465735355,0.363208383321762,0.190271171218786,1.55922431906845
0.57,3.54144801196385,59.6589337617725,59.9122430870812,0.110942100183793,0.392188464075769,0.331554502248764,-0.671444319607966,1.58782027443002
0.58,3.60387126841401,59.6115288298851,59.9122430870812,-0.0203765675493391,0.394130837048365,0.366774618625641,0.101232637716892,1.76605044440218
0.59,3.66629122004982,59.609732958312,59.9122430870812,-0.0290023083264314,0.320227170469455,0.305333852767944,0.119457029200765,1.85253942405555
0.6,3.72871086864248,59.582772363002,59.9122430870812,0.018855941978736,0.38975732033964,0.31928077340126,-0.151121655793407,1.52056165150011
0.61,3.79113436861422,59.6066472294017,59.9122430870812,-0.00756727836245435,0.333493980253108,0.369112104177475,0.0392950086574287,2.13577833677331
0.62,3.85356556419243,59.5746042865125,59.9122430870812,0.000215929613801263,0.38591659247494,0.407194525003433,-0.0299005028740978,2.05788573323057
0.63,3.91597941309962,59.6144068318747,59.9122430870812,0.00040486973524026,0.398670483088281,0.372136414051056,-0.0214929140670901,1.75548168077535
0.64,3.97839796945074,59.596833111841,59.9122430870812,8.60219996533657e-05,0.268467439580621,0.305597543716431,-0.0305169108407799,2.1613280880996
0.65,4.04081365296713,59.6233598037482,59.9122430870812,-0.0130752762931556,0.408836888243988,0.382409900426865,0.041222079619601,1.77423075768185
0.66,4.10323809771868,59.671138613957,59.9122430870812,-0.0679305767139604,0.384466610076869,0.31997549533844,0.435662519331259,1.53585975056346
0.67,4.16566717074428,59.5901479681536,59.9122430870812,0.0612330548385821,0.434806728486087,0.356663465499878,-0.362647402992302,1.4581092394286
0.68,4.2280715908009,59.5829471181427,59.9122430870812,0.0551036227825531,0.467807734695835,0.448183059692383,-0.327842694289914,1.8098206178884
0.69,4.29049180010741,59.5662420191241,59.9122430870812,-0.0749147593490303,0.334883628142592,0.349909454584122,0.462979248641614,2.04819590077284
0.7,4.35290423577172,59.6024992672881,59.9122430870812,-0.00165508601625231,0.38199867366877,0.338331967592239,0.0201226415505057,1.68692277219473
0.71,4.41533747124252,59.5747003963811,59.9122430870812,0.0266259356072055,0.356939774450521,0.370305716991425,-0.115714387309144,2.01702156764119
0.72,4.47775433127723,59.6330965813812,59.9122430870812,-0.004119384670363,0.457475389528855,0.402381181716919,0.0403644014721826,1.60995627785062
0.73,4.54016383555659,59.5643065147058,59.9122430870812,0.0179796889787408,0.351949211021691,0.363483935594559,-0.109842444978713,2.01245005167548
0.74,4.60257751024114,59.5672537935185,59.9122430870812,-0.0951841001126619,0.347845607367183,0.376442909240723,0.593205157785747,2.15369619834768
0.75,4.66499527471886,59.6100634041913,59.9122430870812,-0.0519493652404657,0.39225755695092,0.341988861560822,0.319239499511048,1.65511720966898
0.76,4.72743181917239,59.6510266475557,59.9122430870812,0.0382727394765935,0.380953332479154,0.334464907646179,-0.178720995002276,1.67461661269252
0.77,4.78985407268053,59.621134996268,59.9122430870812,0.0409687828955771,0.410189622596115,0.389941960573196,-0.243752079422938,1.81669285909166
0.78,4.85226661256516,59.6269409513866,59.9122430870812,-0.0419998638526364,0.319034689566825,0.353624820709229,0.233321145526109,2.1515774524654
0.79,4.91468627805231,59.6116988908077,59.9122430870812,-0.0200273532741855,0.376537396106802,0.334634453058243,0.14651104192419,1.70894329680617
0.8,4.97710416573309,59.6093564733912,59.9122430870812,-0.0740776396614404,0.376809045588848,0.334805756807327,0.466747615508159,1.68602088037922
0.81,5.03953614444049,59.6124244329275,59.9122430870812,0.047852082840444,0.400283899773606,0.364058256149292,-0.281399146011331,1.72517950514952
0.82,5.1019554287651,59.606601938538,59.9122430870812,-0.0385092508708204,0.385135315027337,0.395642518997192,0.224946042671968,1.99402762580535
0.83,5.16437603177054,59.5760481643992,59.9122430870812,-0.0303276219185193,0.358572245771123,0.363192677497864,0.142574447492002,1.96378028685342
0.84,5.2267921655776,59.5844904641983,59.9122430870812,-0.0275537546145835,0.358284166518827,0.352693557739258,0.153377740070419,1.9144762295392
0.85,5.28921292643548,59.6327453049816,59.9122430870812,0.0212585350596346,0.414199851265019,0.36674776673317,-0.116046859780555,1.64519045498378
0.86,5.35164770986901,59.5747914546769,59.9122430870812,0.0349660435842985,0.351321845377043,0.352951377630234,-0.204830373007635,1.94045392799556
0.87,5.41406097276222,59.6466926688012,59.9122430870812,-0.0104903396301626,0.465395872569837,0.40899869799614,0.0764395301195817,1.57239809280728
0.88,5.47648500581398,59.6856276815738,59.9122430870812,-0.0911740510156122,0.422082397557044,0.411129087209702,0.547579188947334,1.86786370884715
0.89,5.53889874063614,59.5745596691045,59.9122430870812,-0.0539742271391804,0.393341234663692,0.383167654275894,0.3276823782471,1.86999761651284
0.9,5.60131932910816,59.6101005933192,59.9122430870812,0.0252109377688396,0.37041639220409,0.320287197828293,-0.118635512288379,1.62275057819923
0.91,5.6637427719141,59.6537955559924,59.9122430870812,0.0750129889072529,0.435219315112835,0.418728440999985,-0.454845432714645,1.838668018968
0.92,5.72615525295912,59.5882463955971,59.9122430870812,0.0919498514877962,0.381620715495315,0.403452962636948,-0.545950793074125,2.05510818466207
0.93,5.78858201915034,59.6107805166948,59.9122430870812,-0.0862244620873288,0.420652380469647,0.388555735349655,0.52625774260441,1.74603452545176
0.94,5.85098902096811,59.583738322377,59.9122430870812,-0.041181742749723,0.478336583890257,0.424182415008545,0.258484791490501,1.61101626693848
0.95,5.91341324558993,59.6022377667272,59.9122430870812,0.0150538524069791,0.348292117913014,0.332164257764816,-0.0501988250710698,1.84665264634326
0.96,5.97583560251353,59.6075257090584,59.9122430870812,0.0230125386274778,0.447219809371286,0.389967381954193,-0.123018317698821,1.59687199995929
0.97,6.03824888537932,59.5626176080936,59.9122430870812,0.0362750359211151,0.318067447849349,0.368690490722656,-0.222621670119661,2.24138053863053
0.98,6.10067095523189,59.6146321847538,59.9122430870812,-0.0135742610017264,0.375016794574158,0.350304216146469,0.0881364288663729,1.80849259384184
0.99,6.16308859037242,59.5779376750319,59.9122430870812,-0.00376356499559388,0.332411549290644,0.360790312290192,0.0169260212604768,2.1093647247467
1,6.22552557730265,59.6467842686001,59.9122430870812,0.0165110064488362,0.410305482605397,0.380518436431885,-0.0860855601152716,1.75185350174625
1.01,0.00476886645683194,59.5700204522864,59.9122430870812,-0.00243529221608653,0.427846113960992,0.366242200136185,-0.00811514676715446,1.53893413835353
1.02,0.0671748770152272,59.6299074007152,59.9122430870812,-0.0401575640758946,0.414790674729948,0.421143501996994,0.182526734379577,1.96580351705913
1.03,0.129593898882471,59.5913306698232,59.9122430870812,-0.0423425962715873,0.463816999452549,0.416837722063065,0.230652319700094,1.65903383085617
1.04,0.192013529146152,59.5896630032686,59.9122430870812,-0.0120816118484456,0.335647193789423,0.366242438554764,0.0633711634968711,2.10331227093726
1.05,0.254447825391692,59.6408074859737,59.9122430870812,0.0657849171566132,0.370301198293361,0.314201802015305,-0.42544570432851,1.58833809634998
1.06,0.316855390416539,59.5995481307694,59.9122430870812,0.0389121137064112,0.436296616524841,0.376961916685104,-0.261518406111118,1.5627714529378
1.07,0.379274190101335,59.6046086785521,59.9122430870812,-0.0850201619524949,0.304965796519807,0.356633514165878,0.479289118219052,2.24673878217726
1.08,0.441696948820698,59.5948297129499,59.9122430870812,-0.0310175508340026,0.361367754465821,0.34422042965889,0.168467009141401,1.82741656843145
1.09,0.504111758209097,59.5927233810214,59.9122430870812,-0.0558545969891294,0.373346600609428,0.359911918640137,0.341951303933905,1.84469926078294
1.1,0.566548039883473,59.6195050021011,59.9122430870812,0.0536663115718833,0.401075431619663,0.366141021251678,-0.364474174391144,1.71194926555734
1.11,0.628967583504276,59.5656587183476,59.9122430870812,0.0366981843221105,0.343916837604979,0.339805543422699,-0.251370751947921,1.87502609018312
1.12,0.691379912703767,59.6357490259928,59.9122430870812,-0.0451093935144337,0.389825902874113,0.359624117612839,0.216483280643924,1.7539974823379
1.13,0.7537928358385,59.5853804575956,59.9122430870812,-0.0055979019490352,0.392816913513725,0.371595054864883,-0.00542462432644653,1.80527118064115
1.14,0.816223335374106,59.6346029145912,59.9122430870812,-0.0353642565130728,0.373936119461916,0.34657496213913,0.217547803367636,1.75073106511059
1.15,0.878646213569509,59.5786760393674,59.9122430870812,0.000774245753462084,0.361102691744365,0.363943219184875,-0.0325590024198916,1.94181931274316
1.16,0.941057656273497,59.5491674452098,59.9122430870812,0.0710162271402449,0.310560118137782,0.31889209151268,-0.452815622856404,1.9678763744526
1.17,1.00346502989746,59.6001608160081,59.9122430870812,-0.0502193544711497,0.467281226256575,0.461274266242981,0.267744909884757,1.92676218611012
1.18,1.06588380477307,59.6101736073819,59.9122430870812,-0.0710163283108552,0.411435051221175,0.380197614431381,0.391594835445913,1.75665201040568
1.19,1.12831943922367,59.6115949301078,59.9122430870812,-0.0242517494058984,0.392352129019364,0.406119078397751,0.157169586126105,2.01312259911655
1.2,1.19073918844592,59.5941452269654,59.9122430870812,-0.039381751096073,0.3758277900576,0.33978345990181,0.222515273605967,1.71350276574722
1.21,1.25315629892801,59.6437889728164,59.9122430870812,0.0524148671780092,0.407671848110183,0.386503994464874,-0.31578569266493,1.79507962926629
1.22,1.31558019480192,59.55825750352,59.9122430870812,-0.0486032936161894,0.381425713105669,0.405690103769302,0.292425321201284,2.08141411257652
1.23,1.37798652668825,59.6301994724543,59.9122430870812,-0.00788943105055308,0.399538174362366,0.376785904169083,0.0437222332057278,1.79503460737294
1.24,1.44041917001395,59.6348085485364,59.9122430870812,0.0295740112665787,0.413382104145066,0.397722214460373,-0.131569238294416,1.84226746327885
1.25,1.50284129744131,59.583411721438,59.9122430870812,-0.000446370759395409,0.393136033439284,0.374983042478561,0.0086972021426797,1.81341370803265
1.26,1.56525319972493,59.623950859375,59.9122430870812,-0.00490342682134966,0.351585021303729,0.403682380914688,0.0185037267631532,2.24559567494291
1.27,1.62766229015292,59.6119834353155,59.9122430870812,0.0204641356460322,0.377282543058673,0.37880352139473,-0.109981965723935,1.9682989362655
1.28,1.69008470283773,59.6397668734992,59.9122430870812,-0.016960624126397,0.359670306601949,0.391610026359558,0.126113668108006,2.12665262408746
1.29,1.75251711876625,59.5675202542532,59.9122430870812,0.00689679003730555,0.333629927140542,0.335284233093262,-0.0289218870543703,1.95545113387703
1.3,1.81493067485461,59.5957951882814,59.9122430870812,0.00769306436682715,0.376155145059314,0.334862738847733,-0.0458946977780555,1.67870698217442
1.31,1.87735110606302,59.6429292195849,59.9122430870812,-0.0147705226526852,0.325367114190554,0.385919213294983,0.084451155272965,2.30180522682548
1.32,1.9397624284832,59.6193687300736,59.9122430870812,0.037371035067285,0.409789610611516,0.390296638011932,-0.208230597780135,1.83155398556909
1.33,2.00218610292374,59.6195643401632,59.9122430870812,0.0544560412330139,0.403133009580095,0.366016179323196,-0.287649001807242,1.70862497486324
1.34,2.06462064345183,59.6259815558383,59.9122430870812,0.023668250397313,0.39502547274836,0.379697680473328,-0.138328329831987,1.83927738945138
1.35,2.12703556194492,59.5621740346116,59.9122430870812,0.0515244355559924,0.341071112126679,0.341517418622971,-0.311649031678672,1.92029329037411
