t,theta,omega,r,i_d,i_q,i_q_ref,v_d,v_q
0,0,0,187.626237011917,-2.2363217095903e-24,0,0,0,0
0.01,0.0603582049281893,118.326784308449,187.626237011917,0.190687378810555,7.53339714327132,10,-1.24896168640082,18.6029668177311
0.02,0.236725101438268,187.570357240235,187.626237011917,-0.0123949068881264,1.33157992395431,1.4412921667099,-0.220482033896768,6.25088994228113
0.03,0.432198224045486,186.629518723572,187.626237011917,-0.00516953543075652,1.10518520181939,1.17382490634918,-0.248953103381776,6.06243556536343
0.04,0.627660298574359,186.659484512297,187.626237011917,0.0816849077230032,1.1737511356894,1.19040703773499,-0.742240337928667,5.81167038395613
0.05,0.823143913974638,186.766249001056,187.626237011917,0.0161760976674351,1.07936627220652,1.17896354198456,-0.351004076660655,6.37385265153116
0.06,1.01863788078368,186.699014851824,187.626237011917,-0.0268841054491337,1.11937757098591,1.18447983264923,-0.100704252763737,6.20795742713196
0.07,1.21412596090158,186.659888138024,187.626237011917,-0.0132771492150706,1.15099346447404,1.20237147808075,-0.179616614807118,6.1507257044069
0.08,1.40961752523312,186.759592268119,187.626237011917,0.0299616473282908,1.12835476906957,1.16274440288544,-0.416657181418807,6.07984775751389
0.09,1.60512597692756,186.742364782369,187.626237011917,-0.0370668179874819,1.15545394028297,1.15538823604584,-0.028476247751104,5.90084332556719
0.1,1.80063153704664,186.68584037144,187.626237011917,0.0145569604517379,1.14122145728102,1.16546607017517,-0.353310630116545,6.03621650697866
0.11,1.99612928650252,186.701553411866,187.626237011917,-0.00384009008773939,1.13157834150149,1.1514253616333,-0.219613279760015,6.01926838429254
0.12,2.19164449382622,186.733368116822,187.626237011917,0.0151312789008,1.08354069486907,1.15533804893494,-0.3432070011004,6.34663765468715
0.13,2.38715239343834,186.69192367447,187.626237011917,0.0346422655884509,1.11762490278695,1.13093185424805,-0.449724138394978,5.98876787184281
0.14,2.5826546074255,186.674115516968,187.626237011917,0.0654112541781784,1.10511456229796,1.17422926425934,-0.624154526518186,6.31925061154803
0.15,2.77817220073628,186.79297677983,187.626237011917,-0.0380751784565539,1.01127332445704,1.02058041095734,-0.0294583704210268,5.96762568235531
0.16,2.97368047428024,186.676996369493,187.626237011917,-0.0447823734355423,1.07311637225464,1.11654150485992,0.0314931111495079,6.17949563253169
0.17,3.1691700598971,186.681310930913,187.626237011917,-0.0798457344979429,1.19644011485866,1.14129841327667,0.256088461319232,5.59695257669136
0.18,3.36468447902005,186.77608462573,187.626237011917,0.0198225931767368,1.04653578120348,1.14028799533844,-0.360130250486659,6.4916922284906
0.19,3.56019692527739,186.698867348595,187.626237011917,-0.00177244824709968,1.07303468750245,1.08774316310883,-0.209396767951082,6.03097340064318
0.2,3.75570072417131,186.679379217064,187.626237011917,-0.0489801114903911,1.16601356432219,1.19120180606842,0.0550892933471709,6.08667432301034
0.21,3.95120739046155,186.768110435179,187.626237011917,0.0929978270542622,1.10774796536002,1.14633536338806,-0.825360879531913,6.17492429212302
0.22,4.14672876732971,186.722360717415,187.626237011917,-0.0692053711707782,1.03009301720482,1.02818691730499,0.169375434723117,5.93916788555212
0.23,4.34223529909607,186.662425000803,187.626237011917,-0.0262086193481176,1.18991542096061,1.18600273132324,-0.0795229527618383,5.91688937446932
0.24,4.53774663398805,186.753920711178,187.626237011917,0.0017990354384721,1.13970727377368,1.13747787475586,-0.248274002921595,5.92090239638131
0.25,4.73326301802537,186.767669107992,187.626237011917,0.0535290955734958,1.12046114758309,1.1199141740799,-0.54669606773284,5.9488236739563
0.26,4.92876781291562,186.704608913666,187.626237011917,-0.0683375367985844,1.19016966727507,1.19173395633698,0.178333303586586,5.96399684681309
0.27,5.1242643838451,186.688555692362,187.626237011917,0.00558602347867893,1.15963963058431,1.18801367282867,-0.286986029227892,6.12448226806095
0.28,5.3197853543116,186.723596868854,187.626237011917,0.0118863641095398,1.0120254528462,1.04698860645294,-0.306787178679581,6.16954318873131
0.29,5.51530436099339,186.703147703306,187.626237011917,-0.0624466580726833,1.16106309063756,1.14448535442352,0.128488550773548,5.85819033750228
0.3,5.71080565939131,186.685894800765,187.626237011917,0.0282601684293077,1.137226463181,1.14035844802856,-0.431353718435428,5.96691243960563
0.31,5.90632745849728,186.746584617065,187.626237011917,0.0938027063234229,1.0562579889672,1.11367118358612,-0.836422920799678,6.28512844532672
0.32,6.10183660837936,186.704266501068,187.626237011917,-0.119403657807426,1.17405235199204,1.18088412284851,0.462254452234458,5.99715906215883
0.33,0.0141658510531393,186.661440406021,187.626237011917,0.0442029394359089,1.19109097694196,1.18615174293518,-0.514703697453856,5.90591078700706
0.34,0.20967134071196,186.721873212795,187.626237011917,0.00819422614780953,1.13434266712543,1.18173146247864,-0.314553256640975,6.22916250576128
0.35,0.405194352982249,186.68247421458,187.626237011917,-0.0710477159723498,1.01375457734297,1.06954491138458,0.137780009446981,6.28535796074791
0.36,0.600693791498437,186.714091810879,187.626237011917,0.0271996521123267,1.22594651019422,1.20428097248077,-0.43807744831179,5.8225388760597
0.37,0.796205920850799,186.772051891552,187.626237011917,0.0405192550447236,1.13417103548975,1.13904464244843,-0.531345807507503,5.97313335128097
0.38,0.99172380623746,186.732298572694,187.626237011917,-0.0528216103127746,1.07293709937951,1.12843644618988,0.0179403538097613,6.28827465490879
0.39,1.1872287497008,186.679772496973,187.626237011917,0.0219790039175434,1.14691836680033,1.15407395362854,-0.409484890404629,6.00044351729722
0.4,1.38273609499047,186.686919785633,187.626237011917,0.0757459509307975,1.10869611362822,1.15035378932953,-0.732364332018153,6.19884391461236
0.41,1.57825077971213,186.71326948309,187.626237011917,-0.0551225758663281,0.9561083238808,1.01217424869537,0.0118665439592622,6.29620390418893
0.42,1.77376230385073,186.693024670737,187.626237011917,0.0319693176812201,1.1569922674058,1.13128280639648,-0.474650164806903,5.80987503471394
0.43,1.96926105864336,186.685264874214,187.626237011917,-0.0526286994864181,1.21823510321956,1.19131445884705,0.0569333688177846,5.80171577514438
0.44,2.16477722596535,186.732617711015,187.626237011917,0.0697799893105818,0.995608201886649,1.0891547203064,-0.70187779051742,6.52251847748669
0.45,2.36029494812829,186.722302099231,187.626237011917,-0.0203634715625121,1.07163013985858,1.09690654277802,-0.130615266434275,6.11894224221656
0.46,2.55579807579934,186.702292225902,187.626237011917,-0.0143779292757328,1.21177431865296,1.1937483549118,-0.159908402205822,5.85562124178657
0.47,2.751310824411,186.765930181372,187.626237011917,0.059839640323587,1.12477885641596,1.15987980365753,-0.604963065782891,6.16818417815395
0.48,2.94683531123357,186.662447567966,187.626237011917,-0.0435214267766393,1.02791171973676,1.09654009342194,0.032897781628126,6.37244247916179
0.49,3.1423386686943,186.673126753557,187.626237011917,-0.0526312668470877,1.13591105210126,1.16176581382751,0.0898141686045549,6.11990762571388
0.5,3.33784640030949,186.699498557952,187.626237011917,-0.00160027433939394,1.1392832326126,1.1778507232666,-0.217407546659023,6.19134763877396
0.51,3.533375719525,186.743474076142,187.626237011917,0.0415968598872549,1.09196031782955,1.08906018733978,-0.48700638769424,5.93354248337303
0.52,3.7288796952764,186.712905084274,187.626237011917,0.0115856224773593,1.22548738726202,1.21103692054749,-0.308653319542323,5.87145998854115
0.53,3.92438114309579,186.711733522538,187.626237011917,0.0198285855395283,1.17334321988929,1.19205057621002,-0.36917559439843,6.07118439361386
0.54,4.11989858789102,186.784494822223,187.626237011917,-0.0338111032164412,1.03673481960953,1.13239204883575,-0.0306439147639401,6.53367037474623
0.55,4.31541228022242,186.728929299936,187.626237011917,0.0156769627838935,1.17625050294013,1.16139447689056,-0.342498119074788,5.87001145680184
0.56,4.51091764062945,186.67791279239,187.626237011917,0.00705330785470071,1.14245862780379,1.15568685531616,-0.311890317471865,6.02850842911862
0.57,4.70643215300466,186.773217647166,187.626237011917,0.0327712114331449,1.05648154260623,1.13010621070862,-0.480734220729232,6.3908207208616
0.58,4.90195821094538,186.654202855548,187.626237011917,-0.081818821189182,1.06057929184223,1.09025299549103,0.18756420136612,6.11789199539027
0.59,5.09746235248784,186.694350761351,187.626237011917,-0.0381739159269907,1.16832325723796,1.19865739345551,-0.0562702090182099,6.12247200296584
0.6,5.29297247288848,186.790740004357,187.626237011917,-0.018137107784564,1.19321259863639,1.18326163291931,-0.171319600293501,5.87309743154917
0.61,5.48849184293774,186.709846504426,187.626237011917,-0.00292525969331769,1.04164943495197,1.0650680065155,-0.282050794149347,6.0840613684172
0.62,5.6840048881062,186.672248557536,187.626237011917,0.0577326471463696,1.13154281229138,1.16468751430511,-0.638840563582517,6.12719422058106
0.63,5.87951135925249,186.70899287991,187.626237011917,-0.0549444444587252,1.16434043280478,1.17494595050812,0.044971631358013,5.98357006292496
0.64,6.0750201962471,186.697408154867,187.626237011917,-0.0833038462638597,1.05371436147575,1.14274859428406,0.215484566506327,6.48143956808201
0.65,6.27053846177397,186.717743585572,187.626237011917,0.0296886296227001,1.13880906856084,1.17010247707367,-0.458381308961245,6.12413527303402
0.66,0.182844311330223,186.710675677347,187.626237011917,0.0171822910123438,1.2202943067362,1.20429909229279,-0.381637280911957,5.8545438756069
0.67,0.378362765070523,186.754388794415,187.626237011917,-0.0559131379990623,1.02987018323272,1.14001107215881,0.0410269184643758,6.61174359011534
0.68,0.573877447651338,186.71816985374,187.626237011917,0.0212546684201185,1.20810299362476,1.17590129375458,-0.420933962900176,5.7566743250471
0.69,0.769377720569542,186.651852954709,187.626237011917,-0.0483873905492316,1.14542726247225,1.17247462272644,0.0154890760053312,6.10978052954647
0.7,0.964889259439799,186.719334740741,187.626237011917,-0.0267488236733613,1.02486865413607,1.13427007198334,-0.127048317940714,6.60467410002851
0.71,1.16039360352594,186.682702187789,187.626237011917,0.0668985575530477,1.1650943597894,1.1409604549408,-0.683193318889006,5.83237087853843
0.72,1.35589084613045,186.686127020436,187.626237011917,0.0142094185903689,1.18646648323061,1.16223967075348,-0.344398986925678,5.83223919501366
0.73,1.5513981413331,186.738289948228,187.626237011917,0.0105872756918879,1.13255254579908,1.1729724407196,-0.320134592892254,6.21286062060223
0.74,1.74691300501166,186.677501040636,187.626237011917,-0.0318481984429979,1.05981316780881,1.1260507106781,-0.0443215959232993,6.38504466377834
0.75,1.94241292901571,186.747579553426,187.626237011917,-0.046426043524206,1.2429786104976,1.23097741603851,0.0360210079468814,5.91790979339284
0.76,2.13792378560453,186.698375299237,187.626237011917,-0.0097898148989185,1.11635540779426,1.12714660167694,-0.18749553486193,6.03594501309239
0.77,2.33345352066386,186.719061515602,187.626237011917,0.0298798873948459,1.04343597809738,1.0794118642807,-0.41554132889755,6.18303320543713
0.78,2.52896220636068,186.661571084184,187.626237011917,0.0203560016241086,1.11297427377757,1.14524722099304,-0.353854213962565,6.16033187476396
0.79,2.72446268548079,186.685751772925,187.626237011917,0.117532492197295,1.16251547528679,1.14240765571594,-0.947825327234739,5.83891861549857
0.8,2.91997963161891,186.693622300765,187.626237011917,0.00692639995202973,0.998388527771367,1.04523885250092,-0.290843846231986,6.2486146845514
0.81,3.11550115470411,186.694462070579,187.626237011917,-0.000884329064509332,1.11888083164276,1.16041791439056,-0.259896369386853,6.21405384937349
0.82,3.31100910933752,186.686834611361,187.626237011917,0.0175948580582714,1.15219449253055,1.18068075180054,-0.354334625070653,6.11596908269315
0.83,3.50653457101507,186.757162931309,187.626237011917,0.0347215658417987,1.07853528796997,1.07614982128143,-0.44944593843761,5.90829207807015
0.84,3.70203831886964,186.733978827394,187.626237011917,-0.036976180636346,1.19596040254677,1.20743072032928,-0.0269092571691821,6.01886550742913
0.85,3.89755159374477,186.688843467722,187.626237011917,-0.0128859761632963,1.15039942735946,1.18602788448334,-0.168596785827891,6.14396912295337
0.86,4.09305905791742,186.770464304188,187.626237011917,-0.0154159784741306,1.15719820071711,1.1336864233017,-0.160250057010846,5.78970776424284
0.87,4.28857969416647,186.789014172992,187.626237011917,-0.0286613864900739,1.16629003897148,1.1730318069458,-0.0831436708371155,5.98460903088547
0.88,4.48408165733198,186.688774930044,187.626237011917,-0.0250889136898049,1.10634680517325,1.13724374771118,-0.104240022562223,6.13392768496669
0.89,4.6795903351306,186.751751664352,187.626237011917,-0.0102254063319709,1.14355188229299,1.13569140434265,-0.180451071924993,5.89076745640304
0.9,4.87510529899406,186.720922331134,187.626237011917,-0.0478232641749012,1.02327272199743,1.11126244068146,0.0141643490533102,6.47974332885378
0.91,5.07061971272404,186.638460848233,187.626237011917,0.00244705790182831,1.05403815638886,1.06309866905212,-0.272096259116885,5.9981473693623
0.92,5.26611405995004,186.702807134152,187.626237011917,-0.00637269654048478,1.16282363366869,1.18283975124359,-0.20604855602163,6.06758287898143
0.93,5.46163376088892,186.697138507407,187.626237011917,0.00273220739808699,0.966520287253871,1.05520641803741,-0.291366170765314,6.47995820083096
0.94,5.65714242979018,186.72661814222,187.626237011917,-0.0112660013954514,1.21705582875097,1.16964030265808,-0.177124995693735,5.6799530676957
0.95,5.85265026832184,186.669798824433,187.626237011917,0.019590207109998,1.19597801931796,1.18511557579041,-0.366099290615386,5.88362940317903
0.96,6.04816615572502,186.738610649676,187.626237011917,0.0580956480282969,1.04297035234611,1.12175357341766,-0.63174237887053,6.41532632966231
0.97,6.24369142663656,186.652059385545,187.626237011917,-0.0585116956565944,1.0069205486716,1.00252103805542,0.092045503255868,5.90938337828509
0.98,0.156008743238086,186.700356480769,187.626237011917,-0.0250340307936379,1.23634195909117,1.21169066429138,-0.108036287800975,5.78036915888169
0.99,0.351518284933455,186.739450324593,187.626237011917,0.0364043212536802,1.16311998613696,1.18172895908356,-0.509925541989146,6.03724973777138
1,0.547037386808022,186.687468682369,187.626237011917,0.0490535007474215,1.09082363891299,1.14223718643188,-0.566300370808098,6.24637089629553
1.01,0.742540450060883,186.729914880669,187.626237011917,0.0381430830854971,1.26373811105092,1.20850157737732,-0.500429428642705,5.61425038253353
1.02,0.938046995559635,186.666708752798,187.626237011917,0.0518976287904636,1.18095751919468,1.16541910171509,-0.594655206012776,5.84015052018176
1.03,1.1335693469413,186.682955684375,187.626237011917,0.040922464258073,0.97315563109191,0.961794018745422,-0.530807852033983,5.8710285095976
1.04,1.32907404524652,186.654301224991,187.626237011917,-0.0435051197793351,1.13386594535112,1.11089289188385,-0.0315474393132729,5.81584278152481
1.05,1.52458083476385,186.718259906324,187.626237011917,0.110167977093748,1.18943007991972,1.17433440685272,-0.957223909513537,5.84898401735733
1.06,1.72009480457437,186.767379722341,187.626237011917,-0.0300183869328406,1.02623298085227,1.12768387794495,-0.114985829799149,6.55319517109754
1.07,1.91561493979539,186.653450520841,187.626237011917,-0.0642614142216306,1.07832734255748,1.11745941638947,0.100464806523301,6.17416233095569
1.08,2.11112222936076,186.690352786591,187.626237011917,0.015955086274728,1.22528140540216,1.20445513725281,-0.385757231397509,5.80596187919059
1.09,2.30662325129709,186.716817489241,187.626237011917,0.0426551816729283,1.12318009131846,1.18876576423645,-0.545759528386639,6.33977893001016
1.1,2.50213306386488,186.750098252194,187.626237011917,-0.07660021874458,1.10603170082596,1.18470680713654,0.155567864135395,6.44389294788459
1.11,2.69764632753933,186.660244286645,187.626237011917,-0.0172680164367042,1.13312803771487,1.16289746761322,-0.171156505677147,6.13237742064187
1.12,2.89315322537759,186.717893978317,187.626237011917,-0.00447874286707803,1.11792345170989,1.09951293468475,-0.25361230144478,5.83929184897621
1.13,3.08867239545307,186.804612075379,187.626237011917,0.0531537298576988,1.10168719893188,1.1549825668335,-0.603744291915033,6.28101495228662
1.14,3.28419165216323,186.671221903304,187.626237011917,0.0381808007595071,1.1105107019957,1.11526489257812,-0.511790769167458,5.97055119671271
1.15,3.47968437874352,186.719185125793,187.626237011917,0.0702620472620982,1.15018399581367,1.18536853790283,-0.684032886078647,6.16439076461081
1.16,3.67521181661626,186.740082174154,187.626237011917,-0.103394565744107,0.985846145153782,1.01769554615021,0.371793617146855,6.13815897758822
1.17,3.87071860911368,186.700037878959,187.626237011917,0.0474378537407192,1.18787859063488,1.18628346920013,-0.526597203871181,5.94219912071789
1.18,4.06622106274512,186.716053435076,187.626237011917,0.00607071132658019,1.17224389320678,1.20894002914429,-0.27717475893443,6.16624010448435
1.19,4.26173205830162,186.781339561902,187.626237011917,-0.0271465846826517,1.03539748358651,1.09422433376312,-0.110604407769245,6.30991593002276
1.2,4.45724381235862,186.729088349224,187.626237011917,0.065118740699453,1.11808834056309,1.12053942680359,-0.652095922668113,5.98291132420271
1.21,4.65275932052368,186.673898444025,187.626237011917,-0.0359719684446193,1.1981342257265,1.17323136329651,-0.0604198958320874,5.79355859636709
1.22,4.84826599343014,186.725412476271,187.626237011917,0.0903790869457923,1.10026938680329,1.16246521472931,-0.812909443973045,6.32358063758271
1.23,5.04379365867624,186.718516001387,187.626237011917,-0.0411679001705064,1.01830244053079,0.984833121299744,-0.0129290651451865,5.74258536985492
1.24,5.23930561224039,186.693499979487,187.626237011917,-0.0308782711846725,1.18517413552786,1.15726017951965,-0.0847740038371915,5.75661393763999
1.25,5.43480555852107,186.688060391555,187.626237011917,0.0627870962447657,1.14354416197835,1.17420327663422,-0.643674670530516,6.10819478461963
1.26,5.63031894743438,186.770508307957,187.626237011917,0.0465802887030232,1.11862138229338,1.11687099933624,-0.531302878025764,5.9346088370017
1.27,5.8258101519322,186.675005508522,187.626237011917,-0.0125046110281523,1.2193779957649,1.22319757938385,-0.160355275762833,5.9889177640239
1.28,6.02131649629613,186.683315787373,187.626237011917,0.108537412491666,1.18055676960959,1.18305099010468,-0.91013125266482,5.97203224248424
1.29,6.21683937153779,186.728179258443,187.626237011917,0.00553709352499382,1.06047775742613,1.13635516166687,-0.28213531337709,6.41403270383919
1.3,0.129170175566912,186.71618520681,187.626237011917,-0.0636074817240602,1.17502953348655,1.17822992801666,0.11345852819646,5.97927629336408
1.31,0.324679206691084,186.700980401973,187.626237011917,0.0636501782852337,1.19917126111739,1.18541717529297,-0.635682229931922,5.85698795064828
1.32,0.520192416165457,186.762902772968,187.626237011917,0.0795872874139433,1.06516042487515,1.11875808238983,-0.720701533860752,6.2675580950007
1.33,0.715707991967864,186.714268615191,187.626237011917,-0.0155043411651367,1.10245952146337,1.14360511302948,-0.171070896715241,6.19698098712834
1.34,0.911221241099742,186.693906610746,187.626237011917,0.0304914445690276,1.12208900369278,1.16097724437714,-0.461281550806993,6.16442614883136
1.35,1.10672884158224,186.779391543753,187.626237011917,-0.00661399017911996,1.13877757870209,1.14300715923309,-0.254828802294185,5.95526700966865
1.36,1.30224148083769,186.695676778743,187.626237011917,-0.0453438889595975,1.10516069243658,1.0859682559967,-0.0399278564026591,5.83179370507215
1.37,1.49774842421365,186.673898192125,187.626237011917,0.0921195831139435,1.17786173236097,1.16668581962585,-0.850463639454763,5.86896491399323
