t,theta,omega,r,i_d,i_q,i_q_ref,v_d,v_q
0,0,0,107.168196900964,-1.05567967318917e-24,0,0,0,0
0.01,0.0625595061381558,108.652951630507,107.168196900964,-0.138718205673356,-3.36414053162161,-4.96959400177002,0.705007431776537,-6.56906755752403
0.02,0.174113112113833,106.682265899365,107.168196900964,0.0419163204608417,0.595347963800916,0.579389870166779,-0.348107390868058,3.12771703826682
0.03,0.285833959958921,106.619036768174,107.168196900964,-0.0375677903650661,0.589596374857545,0.62463790178299,0.140801381802634,3.44017485366203
0.04,0.39753768720086,106.653180563453,107.168196900964,0.0242404777787928,0.598190036008102,0.603548586368561,-0.245375821859919,3.2902573436227
0.05,0.509253098307194,106.663591291191,107.168196900964,0.074264435153202,0.496585234930112,0.504073560237885,-0.553226332908042,3.29033855901153
0.06,0.620958286161888,106.675437183902,107.168196900964,-0.0178944813524777,0.745220805403458,0.707651138305664,-0.00226083562330359,3.03901292928864
0.07,0.732695353498502,106.668890606257,107.168196900964,0.0504961664484063,0.603063178901885,0.576650142669678,-0.409495343532929,3.08817887752787
0.08,0.844411017209603,106.622300112104,107.168196900964,-0.0924075796138966,0.560320951440799,0.629000604152679,0.456998296276712,3.66352613328029
0.09,0.956118736762629,106.678822694327,107.168196900964,0.0499344213846867,0.576056354388029,0.542793095111847,-0.388392836526484,3.04538674573913
0.1,1.06784588730263,106.663840201429,107.168196900964,0.0149791575933844,0.595910564941416,0.588120222091675,-0.162042374764277,3.17982433795726
0.11,1.17955837086289,106.606939416288,107.168196900964,-0.0701637053167685,0.584493509563376,0.637647807598114,0.359389836120912,3.56913146655857
0.12,1.29128764285687,106.756484651745,107.168196900964,-0.0309104764255833,0.601328246842745,0.566006302833557,0.120757931392983,3.01792607681186
0.13,1.40298929111867,106.767600435092,107.168196900964,0.0869202470483439,0.605093151478259,0.59986138343811,-0.59255020041383,3.20600685430505
0.14,1.51471098809502,106.619967218526,107.168196900964,-0.0274710155893653,0.605927059462644,0.630520761013031,0.116906682235735,3.38072533919541
0.15,1.62643732975298,106.672774201249,107.168196900964,0.0155247667657604,0.600925286638181,0.571649968624115,-0.134098806813483,3.05687455716669
0.16,1.73814636284864,106.672608287208,107.168196900964,-0.0917876719894663,0.535725395087203,0.537225365638733,0.50107589475825,3.25717046836981
0.17,1.84984520699722,106.706737134691,107.168196900964,0.0235789711018497,0.559105514822075,0.561302006244659,-0.187666422409274,3.27810823664187
0.18,1.96155103601566,106.689681751688,107.168196900964,-0.0112249867329071,0.741095150467623,0.686719834804535,0.0209684805285533,2.9614649857357
0.19,2.0732767989542,106.662126070725,107.168196900964,-0.0682725189926264,0.559923512548255,0.529375731945038,0.366132708163561,3.10202134251949
0.2,2.1850137651651,106.718636528523,107.168196900964,-0.0342577929919849,0.477303346715033,0.540907382965088,0.159388743043797,3.63118945709631
0.21,2.29671026895588,106.731528088736,107.168196900964,0.0561635807079057,0.613042314014481,0.634020268917084,-0.374967043345595,3.39078664238528
0.22,2.40842306857525,106.649324418703,107.168196900964,-0.0329515876770966,0.598561721644587,0.59094625711441,0.164668915867024,3.22599458838969
0.23,2.52015214979133,106.704953470091,107.168196900964,0.0112390777183775,0.637652992681043,0.669380068778992,-0.114019406721932,3.45549775203422
0.24,2.63188228339747,106.764419800288,107.168196900964,-0.0744023399624197,0.585310181202891,0.580270528793335,0.402453880749535,3.21145022331007
0.25,2.74359364436362,106.755738597412,107.168196900964,0.00519973733047766,0.52519534400046,0.568914353847504,-0.0546945266312489,3.49645081528354
0.26,2.85530250880641,106.665168017922,107.168196900964,-0.018228390652368,0.596001819726072,0.571683883666992,0.0983376528161951,3.10899867701988
0.27,2.96702845609045,106.677402293838,107.168196900964,-0.000247867583726386,0.59711455354233,0.584581851959229,-0.00872089336197051,3.18263959046138
0.28,3.07874196868452,106.688154584671,107.168196900964,-0.0525873057855066,0.551195238025651,0.507396280765533,0.283874126024613,2.99808287937088
0.29,3.19046142534266,106.653175156298,107.168196900964,0.0563115510920764,0.596707066919527,0.628184497356415,-0.389165142605165,3.42503481294333
0.3,3.30217936790534,106.636675920029,107.168196900964,0.0426376896264565,0.605517008914792,0.630965232849121,-0.279486408163835,3.39301888415498
0.31,3.41391010906729,106.591063395756,107.168196900964,-0.0237648257467247,0.575834516443707,0.614516496658325,0.0974974260966757,3.46197663103974
0.32,3.52562139615612,106.707953436299,107.168196900964,0.0568747561323865,0.517761915290878,0.547391653060913,-0.404187738545734,3.41264561471007
0.33,3.63732145054632,106.738125056794,107.168196900964,-0.0275630052039166,0.636785043173623,0.585729479789734,0.121285029848332,2.93921047174393
0.34,3.74904523174339,106.621789090823,107.168196900964,0.0889943069748003,0.592541177727955,0.612007796764374,-0.569643912205508,3.35731467766391
0.35,3.86077483982681,106.679179944219,107.168196900964,-0.0547791764262204,0.586735289685127,0.554751574993134,0.276471802838237,3.04297400868373
0.36,3.97248763819375,106.664453581943,107.168196900964,-0.0143265054888932,0.445637932864375,0.481755197048187,0.0222767016551894,3.45757018895041
0.37,4.08418790179882,106.655934401731,107.168196900964,0.0559378748467852,0.606181701048287,0.658718705177307,-0.40958778904679,3.57026025941823
0.38,4.19589729076883,106.598619036105,107.168196900964,-0.00030831101998921,0.594537427785564,0.629228472709656,-0.0648169047085656,3.48891165347606
0.39,4.30762383560044,106.70133339973,107.168196900964,-0.0568559320201161,0.721392236477926,0.706047594547272,0.293442834652213,3.18136073312404
0.4,4.41934027252712,106.678860041834,107.168196900964,-0.00986084160437101,0.570512057084451,0.576029002666473,-0.0185279701018809,3.30118572216956
0.41,4.53106122113103,106.760008514612,107.168196900964,-0.0236172322875703,0.64709024326818,0.583461880683899,0.0877487779768404,2.86497448366417
0.42,4.6427899943932,106.65140126148,107.168196900964,0.0518512188092841,0.608877163911456,0.625875771045685,-0.350265511915548,3.33810572575283
0.43,4.7545180144306,106.710358168878,107.168196900964,-0.0643205470310322,0.587761673682213,0.552969574928284,0.344294878971726,3.02182320092453
0.44,4.86622655278223,106.652790738119,107.168196900964,0.00978910012074502,0.515920332370572,0.496029645204544,-0.113036245439062,3.11883119977142
0.45,4.97791518765848,106.730980685633,107.168196900964,0.027999998691373,0.625258917272627,0.610901355743408,-0.229484908751087,3.19121699783912
0.46,5.08963797061617,106.660919275841,107.168196900964,-0.0207896934771597,0.60733126805971,0.600821077823639,0.0800232272890078,3.24014966320149
0.47,5.20134447647998,106.66178671165,107.168196900964,-0.0249751668378361,0.696618127913324,0.654820144176483,0.0948306711572558,3.06157445713741
0.48,5.31307571433487,106.721987029425,107.168196900964,0.0653602882391164,0.53576151460299,0.594729840755463,-0.448072408728826,3.6334326600336
0.49,5.42479579767051,106.740569783467,107.168196900964,0.0553141878208354,0.619005964344574,0.589030623435974,-0.363910698882003,3.08055392236904
0.5,5.53651515496568,106.67427748343,107.168196900964,0.0360820059404022,0.609767144851385,0.598450779914856,-0.264503274885041,3.20027207385858
0.51,5.6482443842361,106.647035702335,107.168196900964,-0.0314268611210794,0.578883390389968,0.613268256187439,0.127560431253046,3.46722309228555
0.52,5.75995816878543,106.747129290853,107.168196900964,0.0193188048990383,0.620672107178654,0.588159084320068,-0.188647834117547,3.05766798843205
0.53,5.87166924390835,106.709196089918,107.168196900964,0.0859823733513357,0.633849572646281,0.691332578659058,-0.575382388251341,3.5955644655238
0.54,5.98338759836954,106.681781015649,107.168196900964,-0.0358582241656175,0.609870295803751,0.591146171092987,0.159822766636118,3.15041914519189
0.55,6.09512411347563,106.71270103271,107.168196900964,-0.0189151314982122,0.601521089485963,0.604292452335358,0.0511282706817854,3.2562174334228
0.56,6.2068352774752,106.683498187362,107.168196900964,0.0677988187620669,0.509077876697334,0.543908596038818,-0.481547054612729,3.44356819077384
0.57,0.0353529224787739,106.718857450429,107.168196900964,0.0366220420875836,0.647288653629892,0.680426001548767,-0.276905905654683,3.44859398885143
0.58,0.147093087152863,106.680363853608,107.168196900964,0.0334297275578007,0.634766281299918,0.659652590751648,-0.259034226515721,3.37343414176001
0.59,0.258797608433635,106.66830312184,107.168196900964,0.0367125489323035,0.713199606853595,0.664556205272675,-0.309920159099557,2.96065912528908
0.6,0.370517237707313,106.711316921906,107.168196900964,0.00485094204918229,0.620399197638953,0.611952185630798,-0.120393475861132,3.1852269024825
0.61,0.482231089010546,106.609553904836,107.168196900964,0.0771076103669679,0.591965878983077,0.650933563709259,-0.532973195378599,3.58832666985476
0.62,0.593953410526086,106.685542224107,107.168196900964,0.00919054817460929,0.732355161267192,0.688029229640961,-0.138413453515187,2.97375839372628
0.63,0.705674969865539,106.73320903881,107.168196900964,0.0655016465766573,0.663439730001533,0.681980013847351,-0.476633585564274,3.3555371021226
0.64,0.817387237400421,106.682011614836,107.168196900964,-0.0491883027738025,0.51203620104193,0.539405345916748,0.217532552714151,3.40745763253973
0.65,0.929095331036768,106.695754175117,107.168196900964,-0.0305249564652394,0.659281675215767,0.682900846004486,0.111088039728784,3.39450707657259
0.66,1.04080992543502,106.691489183899,107.168196900964,-0.0309505496774388,0.730963279155419,0.682610332965851,0.102931002287272,2.97931920726288
0.67,1.15253952180174,106.668283320447,107.168196900964,-0.0800799459970798,0.539622933953627,0.520862638950348,0.388222586468329,3.14592944660301
0.68,1.264235229591,106.72521250863,107.168196900964,0.0831487353723604,0.572156724641643,0.527087450027466,-0.601508211040479,3.00605280769963
0.69,1.37594301440078,106.694029610567,107.168196900964,0.0579816962371588,0.638241908590201,0.68167120218277,-0.438049841021415,3.55004185066371
0.7,1.48767002397545,106.658478749222,107.168196900964,-0.0304779676655751,0.603385457116303,0.607760071754456,0.0984034928209386,3.31505203633308
0.71,1.59939264577413,106.660266646855,107.168196900964,0.0266689286693274,0.625132172896683,0.637787222862244,-0.24844324054516,3.36513030871275
0.72,1.71110942504888,106.72908870692,107.168196900964,0.0119212225172993,0.638376734365544,0.622479021549225,-0.18064410817655,3.17388845194151
0.73,1.8228250042394,106.691165868913,107.168196900964,0.0526056442291774,0.638795167869514,0.676816761493683,-0.40600772586189,3.49715155728081
0.74,1.93455267274556,106.673734042314,107.168196900964,0.0497650581751395,0.609510492621076,0.595148384571075,-0.391921490799093,3.17739398875374
0.75,2.04627717802656,106.713732643949,107.168196900964,-0.0426353942961629,0.582716242666824,0.561220526695251,0.173040665606741,3.13193471774225
0.76,2.15798747111684,106.718275308364,107.168196900964,0.0129041795624557,0.628551709499076,0.606096029281616,-0.153004555531591,3.11795336332996
0.77,2.2697134281904,106.657395206226,107.168196900964,-0.0179827637058625,0.601288670451787,0.608436346054077,0.0503465874593398,3.27571107361079
0.78,2.38142704710354,106.607527896479,107.168196900964,0.0148924694137043,0.595067790732537,0.633461356163025,-0.141217118249897,3.48544041997471
0.79,2.49313583475306,106.609726182932,107.168196900964,-0.0223297908958173,0.568086457875961,0.549692869186401,0.0706286766937498,3.1637084670761
0.8,2.60484393616391,106.723295072802,107.168196900964,-0.00145293313517816,0.494910431965097,0.539183676242828,-0.049603034476599,3.53856213240648
0.81,2.71655117908989,106.714971858503,107.168196900964,-0.0200689437666601,0.624151316191255,0.593024611473083,0.0760452135293741,3.0957939134807
0.82,2.82828747494506,106.642915078259,107.168196900964,0.0630986543124102,0.603018503660894,0.60774040222168,-0.415600324532701,3.29329547354604
0.83,2.93999819370687,106.676449529048,107.168196900964,-0.039023569397641,0.587879427514514,0.666154444217682,0.173822123154365,3.75012220226284
0.84,3.05171411294684,106.704352040386,107.168196900964,0.0639372161399385,0.571788399830087,0.506258606910706,-0.447260861131681,2.86841480528747
0.85,3.16342664866979,106.685950461059,107.168196900964,0.0177968092544839,0.641752753022898,0.673511385917664,-0.149170493761377,3.458782743298
0.86,3.2751397025952,106.678964102771,107.168196900964,0.00444594100216145,0.659959340445766,0.640723943710327,-0.0633691070126223,3.1725986629709
0.87,3.38687451390684,106.749279206914,107.168196900964,-0.0189646287923374,0.600385837142335,0.560139536857605,0.0719231344735136,3.01932748134882
0.88,3.49859772124455,106.768338047582,107.168196900964,0.0070250689782772,0.532196528031932,0.579180061817169,-0.0895152830722816,3.51765842535068
0.89,3.61030788529808,106.688535823224,107.168196900964,-0.0334342989922779,0.632764506732656,0.648366153240204,0.177659192188369,3.33834065680645
0.9,3.72203960327944,106.63643697686,107.168196900964,0.0296968608354095,0.600490988579898,0.613173484802246,-0.197451672932527,3.31170848806572
0.91,3.83375790439482,106.742408842832,107.168196900964,0.0301562647617517,0.484396770948816,0.507330119609833,-0.227487654625355,3.37313575167236
0.92,3.94545760536254,106.717671057486,107.168196900964,0.0270736389791368,0.627940573308405,0.649267435073853,-0.217777789169428,3.37326595662065
0.93,4.05716423972299,106.686287764105,107.168196900964,-0.0255820804687348,0.64523192635904,0.675466775894165,0.099697344775389,3.44852369448305
0.94,4.1689075448451,106.669518727413,107.168196900964,0.0346281389468847,0.625222893012094,0.653959393501282,-0.24561256673743,3.41021293711597
0.95,4.28061792626253,106.707939242719,107.168196900964,-0.0379279320230262,0.600072594169417,0.585005342960358,0.178593813202887,3.16039995264775
0.96,4.39232185916403,106.726446610689,107.168196900964,0.0708774076674549,0.608791585169931,0.636136412620544,-0.484389527348707,3.41947100611499
0.97,4.50403479622408,106.697818105726,107.168196900964,-0.0297101739782574,0.64417018671971,0.654996275901794,0.130310923423926,3.32889371579552
0.98,4.61576083451414,106.680440230136,107.168196900964,-0.0250444827140261,0.656165692918185,0.650166571140289,0.108210523099732,3.22493910662478
0.99,4.72747526122261,106.772768660747,107.168196900964,-0.0672837484805506,0.591645369242575,0.583301424980164,0.347024892978138,3.21686532337012
1,4.83918720317204,106.742224628991,107.168196900964,0.0296454463443896,0.517519445483648,0.565238118171692,-0.234530708765211,3.54532397128677
1.01,4.95089774181056,106.594850177325,107.168196900964,0.02584814848631,0.596143269248405,0.640657067298889,-0.214003054472671,3.53774191396069
1.02,5.06261162032705,106.610378336569,107.168196900964,-0.0256764205038753,0.592248231628485,0.632022142410278,0.105263572106159,3.52849528682949
1.03,5.17433037956023,106.770584742194,107.168196900964,-0.0211512831796279,0.607461925979336,0.611282825469971,0.0640537267922394,3.30893218454756
1.04,5.28605016032666,106.702499666528,107.168196900964,0.080622197974839,0.536025425759171,0.557041466236115,-0.547895802489814,3.39303384727262
1.05,5.39776127618591,106.703296043031,107.168196900964,0.0235253509519905,0.638264740744352,0.646010339260101,-0.190995532719473,3.32720403074903
1.06,5.5094856864066,106.703785465327,107.168196900964,-0.0202301323788194,0.634101554565975,0.666744530200958,0.0712484288536866,3.47495683832917
1.07,5.62120809534462,106.702059236225,107.168196900964,-0.116102753133249,0.523103133733494,0.529792964458466,0.62521543918707,3.3049304918709
1.08,5.73291832859129,106.666778208141,107.168196900964,0.0170635521169644,0.553643138622116,0.544542789459229,-0.154855459266667,3.20426219820782
1.09,5.84463469775767,106.599334558892,107.168196900964,-0.0178506327969598,0.595916914560961,0.627673864364624,0.0645532838075517,3.45933300713956
1.1,5.95636255247131,106.744462245912,107.168196900964,-0.0237345621603326,0.610553568447988,0.567617475986481,0.0933534687636493,3.00589030137537
1.11,6.06808365678536,106.689460514659,107.168196900964,-0.0563499321276899,0.433833662739401,0.487642765045166,0.276209488665577,3.57085026286727
1.12,6.17978106531192,106.676322398394,107.168196900964,0.0119683908251528,0.619642521489952,0.668332517147064,-0.111928410342482,3.55298937675107
1.13,0.00832156411332186,106.609916638617,107.168196900964,0.0214688566829826,0.593337347812374,0.614249169826508,-0.17481715986619,3.3804140945358
1.14,0.120052910114408,106.682043132475,107.168196900964,-0.0497213197899696,0.589319797154203,0.568510353565216,0.256502925500123,3.12168033986788
1.15,0.2317642387896,106.660057649199,107.168196900964,-0.00383779986135903,0.569285492134066,0.592824041843414,-0.0363173642352854,3.39356528664765
1.16,0.343470098938875,106.650839784611,107.168196900964,-0.0160279153761135,0.601192142040114,0.574580132961273,0.0516254004556549,3.09640243063806
1.17,0.455199970444905,106.67007543592,107.168196900964,0.076205478557814,0.607411108547327,0.60261994600296,-0.502622248413392,3.21305474037697
1.18,0.566917165819412,106.762814048429,107.168196900964,-0.0208879449364204,0.624966636245983,0.605863690376282,0.0890707263780531,3.13641795258357
1.19,0.678625991378091,106.688308513994,107.168196900964,-0.0646163825918592,0.543830787021228,0.516020357608795,0.346964852655377,3.08971738912228
1.2,0.790326884341351,106.634548462313,107.168196900964,0.0902455665444426,0.591159415142593,0.660419166088104,-0.566302202109379,3.68653040184391
1.21,0.902046262181424,106.679764639155,107.168196900964,-0.00667938570228154,0.610606368465168,0.590742468833923,0.00764980829569065,3.15832727148521
1.22,1.01377605691669,106.619538492958,107.168196900964,-0.0578990344315035,0.545234466229133,0.527117788791656,0.302772168853099,3.15734390738947
1.23,1.1254775353926,106.715204204659,107.168196900964,-0.088799529133612,0.556041167533292,0.591968059539795,0.465868593921856,3.49878464982776
1.24,1.23719933302591,106.740249540507,107.168196900964,-0.0386606610764008,0.647501329982113,0.595753729343414,0.178499047162002,2.95187968777032
1.25,1.3489344855691,106.681043237266,107.168196900964,0.0472188267609456,0.609240196285939,0.589738368988037,-0.343677550867981,3.12350218195861
1.26,1.46065292555672,106.685990011454,107.168196900964,0.00314627824617503,0.603884760599971,0.600276350975037,-0.0956356299627614,3.22924165846019
1.27,1.57234901653996,106.78517182192,107.168196900964,0.029131115583523,0.64918691607986,0.668627023696899,-0.257440627930829,3.39208828550811
1.28,1.68406341551079,106.733688699962,107.168196900964,0.0175896722398038,0.614466569620617,0.547935307025909,-0.181790021385085,2.86886374951508
1.29,1.79578901663858,106.672792708608,107.168196900964,-0.0528231035307554,0.610210518100208,0.596819162368774,0.24993446590683,3.1836787948948
1.3,1.90752343047486,106.700043434842,107.168196900964,-0.0509442075521973,0.617392276619737,0.641773641109467,0.242398739635916,3.39406990996231
1.31,2.01923806590424,106.753682555349,107.168196900964,-0.0647692219449847,0.584722511023647,0.655766844749451,0.310629120767197,3.66452312040201
1.32,2.1309405573249,106.742348349951,107.168196900964,-0.0293626638312779,0.666031545988105,0.66554844379425,0.119728786393503,3.25030427760026
1.33,2.24266326673612,106.672740110509,107.168196900964,0.00108886370201679,0.610047301101189,0.597779929637909,-0.0462817086848366,3.18268811891489
1.34,2.35439899610243,106.679461324422,107.168196900964,-0.0597307964977625,0.572623393675412,0.567442655563354,0.3006740099231,3.20801181553628
1.35,2.46611158049224,106.71544369644,107.168196900964,0.0147924067906548,0.495789873001177,0.57372385263443,-0.162977280418965,3.69993166801469
