t,theta,omega,r,i_d,i_q,i_q_ref,v_d,v_q
0,0,0,168.184754408075,-2.3209494524287e-24,0,0,0,0
0.01,0.0619007570303581,121.086953941181,168.184754408075,0.192342909123078,7.704595537488,10,-1.24162451172012,17.4279625114825
0.02,0.228991980698849,166.976503095633,168.184754408075,-0.0268554745341449,1.13572790454977,1.33395552635193,-0.031831429384022,5.94521074350935
0.03,0.404138064974311,167.232866612263,168.184754408075,-0.0482972471395623,0.952324268792699,1.1080185174942,0.0766662402224679,5.85245916731322
0.04,0.579279925040714,167.26451340093,168.184754408075,0.0176943257007006,1.19596816698274,1.24185144901276,-0.301163993376119,5.33463785149188
0.05,0.754439363825907,167.284266909023,168.184754408075,-0.00623908105534765,1.12878671100862,1.17986690998077,-0.174073117347298,5.47556413324978
0.06,0.929615043236429,167.244294521823,168.184754408075,0.112901033675912,1.05235343583849,1.11704671382904,-0.908455293945121,5.63861431439953
0.07,1.10479984267955,167.329412440886,168.184754408075,0.0325475466353137,1.08607883513297,1.11030006408691,-0.410250932231549,5.46483414998478
0.08,1.28001485485884,167.331746244991,168.184754408075,-0.0346815038139374,0.935205931121204,0.954369962215424,-0.00140215050060408,5.4766239620198
0.09,1.45522771092988,167.337212817644,168.184754408075,0.0359673346387115,1.05052726059219,1.03684866428375,-0.397844748099312,5.3197501750592
0.1,1.63042764130215,167.327323071186,168.184754408075,-0.0114436105651088,1.10294334205721,1.08748519420624,-0.122800927684782,5.34589788647774
0.11,1.8056401278036,167.290631688415,168.184754408075,0.0721235807274139,1.10995046656901,1.05652940273285,-0.600170218901269,5.13037122434841
0.12,1.98085482996229,167.305685443001,168.184754408075,-0.0551166709933713,1.09030779049591,1.07274949550629,0.16929299166741,5.36012253774678
0.13,2.15606431680806,167.424265635954,168.184754408075,-0.0129913997670009,1.03129997916022,1.0999675989151,-0.0842399886194615,5.90978511656328
0.14,2.33129774486824,167.361140075401,168.184754408075,0.00372142071452475,0.950542255461515,0.960184216499329,-0.177084772050241,5.56020622278476
0.15,2.5065129840899,167.300641192207,168.184754408075,-0.105997553630549,1.03865099815287,1.07296919822693,0.461618696705459,5.73592405526871
0.16,2.68173295562319,167.291833338548,168.184754408075,-0.00462185204528816,1.060214270469,1.05709886550903,-0.152862368663791,5.51826608706683
0.17,2.85694821876198,167.30577592955,168.184754408075,-0.0487867874213787,1.0966415277456,1.08951091766357,0.135568988432432,5.50358131863064
0.18,3.03216985201699,167.314898159786,168.184754408075,0.0489418458943399,1.07064250946677,1.06722688674927,-0.460273317703117,5.52602416493426
0.19,3.20740289319858,167.42859918356,168.184754408075,-0.031249476563481,1.03072882230547,1.08152735233307,0.0303010073631954,5.84787327969302
0.2,3.38263633636661,167.302415970816,168.184754408075,-0.0631705743041884,1.00454957168002,1.04300618171692,0.203864027595503,5.78356080496518
0.21,3.55786288439407,167.303479287365,168.184754408075,0.087402531432113,1.09219308876724,1.0723694562912,-0.699876294377243,5.43726094633308
0.22,3.73309269903851,167.257429729597,168.184754408075,-0.00515325995194216,1.04200546186305,1.01774656772614,-0.1458140087295,5.40375187219341
0.23,3.90831513685219,167.340508734974,168.184754408075,0.00156093130475332,1.12792052482187,1.09333729743958,-0.185243988637975,5.33751102139502
0.24,4.08354439400099,167.26285531223,168.184754408075,0.0814999332229804,1.01389162671969,1.03164601325989,-0.676931231203861,5.64417156114346
0.25,4.25878354359766,167.355734371625,168.184754408075,-0.036042276016247,1.02476955988607,1.10068762302399,0.0416782959633057,5.97901950019334
0.26,4.43401514090322,167.32985671651,168.184754408075,-0.0522769661143648,0.977679978978116,0.999430775642395,0.117391259945594,5.66420022656284
0.27,4.60924280538437,167.2889341982,168.184754408075,-0.0706400793546878,1.02152766571371,1.00223660469055,0.244285415988993,5.4182041095068
0.28,4.7844653137337,167.274089761908,168.184754408075,0.054830427712706,1.06163430264848,1.0469788312912,-0.508824008454379,5.44224601703198
0.29,4.95968688947684,167.327970062621,168.184754408075,-0.0788930661904325,1.1334395146557,1.08374953269958,0.286213691772427,5.22517252474775
0.3,5.13491276105692,167.348385140076,168.184754408075,0.0384437216979281,0.990281200835745,1.05708432197571,-0.415896360875706,5.92142649287206
0.31,5.31014072255481,167.361342180327,168.184754408075,0.0360626287883428,0.908737616746405,1.00630056858063,-0.439613380977385,6.11624884685012
0.32,5.4853592978072,167.371207793726,168.184754408075,0.0062586595128229,1.0578526438174,1.03620588779449,-0.260862603604665,5.42352913128998
0.33,5.66057100010003,167.321930194384,168.184754408075,0.00523727126724194,1.11228107683166,1.1193619966507,-0.237376012284486,5.6169472230939
0.34,5.83579486110375,167.256096834015,168.184754408075,0.00890696243202919,1.01182238654739,1.01225626468658,-0.25209299396494,5.56776286259441
0.35,6.01101689053369,167.301478563789,168.184754408075,0.0776142460941343,1.10321776967375,1.09412503242493,-0.668859706044409,5.50434664605431
0.36,6.18624349113465,167.293549882396,168.184754408075,-0.0483249916097676,0.979308740556582,1.01766443252563,0.0895788050983807,5.78626588946697
0.37,0.078292812367442,167.389448476623,168.184754408075,-0.0342423863656439,0.961027678462096,0.987182855606079,-0.0125328660753977,5.71902942549646
0.38,0.253517451526027,167.382966200084,168.184754408075,-0.0183804580677931,1.07661451371116,1.07557809352875,-0.0904133406624099,5.56768209851559
0.39,0.42874450380205,167.25294040429,168.184754408075,-0.0167674859719203,1.03739393404939,1.0181097984314,-0.0916786432972235,5.45496061223385
0.4,0.603963952304961,167.311795427379,168.184754408075,0.0314054744998553,1.08321032935181,1.06838500499725,-0.37424499061477,5.48527231198841
0.41,0.779194714567417,167.324660657552,168.184754408075,0.0369787686557844,1.14053150953626,1.07927536964417,-0.421910976213188,5.19069789993224
0.42,0.954425163990752,167.386883157068,168.184754408075,-0.0325419801007111,1.02683503807429,1.0655277967453,-0.0188346195375751,5.78397212589845
0.43,1.12966124968257,167.392768699722,168.184754408075,0.0604194266962548,1.00519398929262,0.96393221616745,-0.565362089887949,5.30370838185078
0.44,1.30488698319274,167.31025947732,168.184754408075,-0.0433783269085188,1.01783436840396,1.04157793521881,0.0550209471440328,5.70153671311026
0.45,1.48010922147518,167.320191122216,168.184754408075,0.0366505045050148,1.16748392883923,1.10998725891113,-0.430081111149205,5.21500482742966
0.46,1.65533988189289,167.266596958484,168.184754408075,0.00662867045515847,1.02338652238858,1.03056836128235,-0.2530501299883,5.58934032110235
0.47,1.83056239193463,167.315222205811,168.184754408075,-0.016792714183607,1.03009879953922,1.05335998535156,-0.0983892904325953,5.68355590220238
0.48,2.00578874808945,167.353259037489,168.184754408075,-0.00926737696684675,1.00273591789563,1.07513546943665,-0.13651029509233,5.98653530785402
0.49,2.18102143799469,167.320991319514,168.184754408075,-0.0105058274623402,0.934443519610773,0.942917346954346,-0.116802051255345,5.6099355927799
0.5,2.35624415154219,167.332388525035,168.184754408075,-0.0126622494909516,1.09368889816607,1.04249131679535,-0.108336616091263,5.26286967058927
0.51,2.53147146995813,167.357583088998,168.184754408075,-0.0750325153793343,1.19151973218285,1.14685273170471,0.257511393486179,5.28838376047418
0.52,2.70669821182994,167.303677235667,168.184754408075,0.0224427288266608,1.11596801682103,1.04607021808624,-0.321289761460757,5.12718533768787
0.53,2.88192624382088,167.357950287693,168.184754408075,-0.00227074552151962,1.09482958591303,1.03598093986511,-0.166288606962764,5.18169829409992
0.54,3.05715086494267,167.336034179813,168.184754408075,0.0222678116002022,0.969930508915545,1.05565619468689,-0.324816336214898,6.05487989931433
0.55,3.2323762278751,167.337277283652,168.184754408075,0.0645266434255755,1.01902756269334,0.97422730922699,-0.554111921066614,5.29070237595509
0.56,3.40760981318018,167.332451556663,168.184754408075,-0.099193525418059,1.06166460079577,1.05742847919464,0.426124853922721,5.52512507978843
0.57,3.58283242588601,167.335180119832,168.184754408075,-0.00670798672692716,1.13601015713324,1.05181074142456,-0.103380105766669,5.04066080881621
0.58,3.75804751104783,167.361104084619,168.184754408075,0.0229783167657731,1.21668288769954,1.15644323825836,-0.299778565027622,5.18945267363412
0.59,3.93327465274365,167.322488771856,168.184754408075,0.0759409194681114,1.07606880031639,1.05365085601807,-0.616938558610794,5.41647207483948
0.6,4.10849997048017,167.377048431009,168.184754408075,-0.0149582106210228,0.941784172187887,1.02750527858734,-0.0306365347372792,6.08262796733428
0.61,4.28372901988302,167.329364182846,168.184754408075,-0.0475165962203408,0.925505378976557,0.947069942951202,0.117165238905977,5.70899736043883
0.62,4.45896026666257,167.328360406913,168.184754408075,0.0153591416871773,1.04530339558699,1.0215539932251,-0.264495568543924,5.43265358272181
0.63,4.63419387267007,167.301528059772,168.184754408075,-0.0881254268073537,1.07121495780604,1.06347346305847,0.362113127929258,5.50631697872644
0.64,4.80942373248699,167.308624274198,168.184754408075,0.0196667511360288,1.1326444868538,1.07133781909943,-0.301700281144632,5.16935284459168
0.65,4.98465085976143,167.352481052475,168.184754408075,-0.0311457190518836,1.02883551840062,1.04282081127167,0.00332650496781772,5.61746436249252
0.66,5.15988021761804,167.378046222994,168.184754408075,-0.0577333630230878,0.983929290467753,1.05016577243805,0.152330647753852,5.94155828469028
0.67,5.33510935936488,167.345496412427,168.184754408075,-0.0423895322516504,0.989260845507979,0.955209672451019,0.0732124010466705,5.35366991255997
0.68,5.51034657496229,167.347424457934,168.184754408075,0.00855200489937347,1.08914003935916,1.0552351474762,-0.237284912758814,5.33393728784456
0.69,5.68556376704254,167.28353449716,168.184754408075,0.0866606910354087,1.07200013786926,1.01563000679016,-0.714361426140444,5.19790338898772
0.7,5.8607860101273,167.303956006567,168.184754408075,0.0515312569490496,1.06035476132607,1.0994861125946,-0.521847150274609,5.76404685201138
0.71,6.03600308458462,167.374640798708,168.184754408075,-0.0709804719260348,1.03582608954888,1.06868839263916,0.200991198951419,5.73999313499118
0.72,6.21123581508189,167.356897711767,168.184754408075,0.053563768091023,1.00848865106931,1.00306761264801,-0.544329249081643,5.5165220176827
0.73,0.103288052954696,167.345250945877,168.184754408075,-0.0014591712510339,1.02276011540227,0.998940229415894,-0.225250116395997,5.40483554609395
0.74,0.27851625206905,167.324486604211,168.184754408075,-0.0191734324247571,1.08890745195396,1.07726359367371,-0.10815245442331,5.47557115180014
0.75,0.453743642048568,167.293268621916,168.184754408075,-0.0197384786858909,1.08340138180434,1.03302884101868,-0.0953709581010701,5.2271881758306
0.76,0.628963606068691,167.320158715309,168.184754408075,0.0895377113327956,1.07175140899092,1.05507528781891,-0.765244180602888,5.42945356020767
0.77,0.804175151018436,167.367186470272,168.184754408075,-0.0216331358962361,1.07077294536106,1.11329972743988,-0.081824579071295,5.80783152479778
0.78,0.979403614945845,167.328649795691,168.184754408075,-0.0315982040031878,0.942224435975815,0.992011845111847,-0.0331555566990722,5.86721407342419
0.79,1.15463100135551,167.362137655339,168.184754408075,-0.00326075734818104,1.05908798739555,1.07478404045105,-0.160715923148316,5.67294612119483
0.8,1.32985570078772,167.309219455546,168.184754408075,0.0103110464719939,1.16533531864521,1.09382688999176,-0.245124733518955,5.14380047351933
0.81,1.50508129776199,167.30154153989,168.184754408075,-0.00711665285980806,1.14548393383886,1.06232905387878,-0.134504226964674,5.05897701392296
0.82,1.68030878845196,167.324355356255,168.184754408075,0.0738950596752621,1.03233575302214,1.08613693714142,-0.608131200031667,5.87178415418754
0.83,1.85553898155716,167.375988775652,168.184754408075,0.0335677362961808,1.04521567464553,1.06053328514099,-0.379326677390369,5.6406009101419
0.84,2.03076913890485,167.370862343818,168.184754408075,-0.00650404739427711,1.00784117433362,0.995183408260345,-0.137620557479854,5.48603247614192
0.85,2.20599873651759,167.258060477051,168.184754408075,-0.0917230002247363,0.978293654785643,0.984100520610809,0.369363148048246,5.5969036844135
0.86,2.38122315864208,167.304160802496,168.184754408075,-0.0382251472799082,1.06538127764395,1.01104748249054,0.066313072093039,5.23197624791065
0.87,2.55644455755542,167.309746528728,168.184754408075,0.0610703613504067,1.1034874794595,1.06714904308319,-0.544055019818644,5.33891244561667
0.88,2.73166088962222,167.376538686886,168.184754408075,-0.0340209402129236,1.05775365174474,1.0819011926651,0.0305177389364956,5.70812072558424
0.89,2.90688722680826,167.424893564031,168.184754408075,-0.0433000168359222,1.0290866783291,1.06002378463745,0.0828063404174527,5.75259712669306
0.9,3.08213061276276,167.300231234521,168.184754408075,-0.0452832108613235,0.976015743700918,0.976200938224792,0.0991334845440785,5.55793714863856
0.91,3.25735918004336,167.281447757996,168.184754408075,0.0557211236017448,1.04289305775179,1.01879799365997,-0.507908241291441,5.41694213326664
0.92,3.43257213132896,167.330154514714,168.184754408075,-0.0653059416488002,1.11281833326452,1.12347567081451,0.229342615796399,5.64251523282834
0.93,3.60779597041244,167.290946606253,168.184754408075,-0.0244917016110187,1.05482465196178,1.06752038002014,-0.0272125012163053,5.64426123064022
0.94,3.78301454311761,167.29160593084,168.184754408075,0.0753481922829849,1.02920158006263,1.03767108917236,-0.617333054844235,5.62912534153785
0.95,3.95824447477761,167.382456728286,168.184754408075,0.0444987552215732,0.968786715596861,1.04119956493378,-0.434709626210713,6.0119908921651
0.96,4.13348312975393,167.437837649988,168.184754408075,0.0177071118887421,1.03880552355032,0.988586485385895,-0.268705325095237,5.27633987068123
0.97,4.30870998613019,167.362252887464,168.184754408075,0.0424005661727038,1.11109050732911,1.04297173023224,-0.430469459413443,5.1661895440779
0.98,4.48393393806403,167.281406735321,168.184754408075,0.0468563859544218,1.04320647572019,1.00140178203583,-0.464159888978186,5.3167160365152
0.99,4.65916165029817,167.301852406463,168.184754408075,0.0145477985982028,1.10820178545032,1.08146405220032,-0.277716666976753,5.39521787805601
1,4.83439914375852,167.341933177447,168.184754408075,-0.0155072135876374,1.00600901967714,1.04777550697327,-0.110430469465039,5.78927220221678
1.01,5.00962126061043,167.322798722893,168.184754408075,0.0264588549437058,1.01091449363462,1.01325154304504,-0.353899067944771,5.57098966031899
1.02,5.18484952161367,167.308229081991,168.184754408075,-0.0741259186838738,0.979515882480648,0.997810184955597,0.247798978657535,5.67636463176581
1.03,5.36007135207226,167.322985488614,168.184754408075,0.0678996087756022,1.177352419762,1.11199522018433,-0.600336334092303,5.17579809347373
1.04,5.53530210054705,167.298029671204,168.184754408075,-0.0639048199599796,1.09320111993698,1.07473874092102,0.186824809692255,5.44424698010576
1.05,5.71052572767026,167.278857707372,168.184754408075,0.0483611120265892,1.07151292293852,1.07293748855591,-0.488795775122606,5.55820781784949
1.06,5.8857531815687,167.361597596507,168.184754408075,-0.0010818594325443,0.99768371164969,1.05699932575226,-0.185325080910322,5.89977458728458
1.07,6.06099070583952,167.387976475449,168.184754408075,0.0513877220674958,0.904807727114731,0.982706606388092,-0.517524981569734,6.01092098888719
1.08,6.23622154186382,167.27618747411,168.184754408075,-0.0584694392821075,0.978000377554016,0.966429650783539,0.149648001166032,5.4807581391934
1.09,0.128259441775057,167.312262910568,168.184754408075,-0.0222708745322996,1.15788625586041,1.09956181049347,-0.0791140842029582,5.19943997292617
1.1,0.303480735605994,167.294424898275,168.184754408075,0.0359631580683414,1.0446247815109,1.06040835380554,-0.415107856578751,5.64359391220835
1.11,0.478708010570529,167.340175773034,168.184754408075,-0.00540677844241905,1.12523093367834,1.08240973949432,-0.142822223716825,5.28363248946397
1.12,0.653935042179306,167.368435880032,168.184754408075,0.0354870088609615,1.10324262340288,1.10716605186462,-0.3991959606691,5.5658197766477
1.13,0.829172178591456,167.421487808261,168.184754408075,0.0534546364404973,1.01813691624919,0.977928936481476,-0.521034920612133,5.30144452734605
1.14,1.00439296514352,167.303856867638,168.184754408075,-0.0642489606142333,1.01330271037594,1.04848372936249,0.175092234967982,5.77218587456598
1.15,1.17962339384409,167.332322886469,168.184754408075,-0.0415008769637228,1.13969532557984,1.09336149692535,0.0485103944384666,5.26988007988147
1.16,1.35484461151638,167.329301410868,168.184754408075,0.0181555107184189,1.12159345153953,1.10027730464935,-0.330777365648574,5.41717140836966
1.17,1.53006963230843,167.316037433795,168.184754408075,0.0155755918290743,1.09695502139658,1.09140765666962,-0.318862468558161,5.51020582018848
1.18,1.70529072346575,167.374661098028,168.184754408075,-0.0652228447879756,1.10439476367944,1.06761062145233,0.162704585094853,5.33207784911758
1.19,1.88054158832423,167.349258650549,168.184754408075,0.0712784044653025,0.869734783565658,0.905853867530823,-0.670655099092302,5.75635027065902
1.2,2.05577816854902,167.270193723045,168.184754408075,0.0153010683924698,1.00137645835481,0.93246203660965,-0.33362037263622,5.12029181683251
1.21,2.23098584809055,167.309486248372,168.184754408075,-0.0718344225529188,1.12575179777875,1.05644822120667,0.197048189298571,5.13881113606386
1.22,2.40620212861434,167.295097562353,168.184754408075,0.0151406499908421,1.08274828707735,1.02208232879639,-0.327399337571514,5.18730507489649
1.23,2.58141925374411,167.36191357065,168.184754408075,-0.0435315066064396,1.12641311725031,1.12484037876129,0.0644573355888143,5.54962562779407
1.24,2.75664466500583,167.312543039015,168.184754408075,0.0254438323110531,0.966613678194184,1.05305457115173,-0.375803560068665,6.08049655718744
1.25,2.9318735438497,167.40911722146,168.184754408075,0.0476310395819492,1.06563359348046,1.05547630786896,-0.499201981304458,5.51637565982342
1.26,3.1071071407058,167.293722865534,168.184754408075,-0.11253879645747,1.04649590138982,1.06713449954987,0.4739935696241,5.69236117648787
1.27,3.28232998736857,167.306459783616,168.184754408075,0.00865290126791551,1.07195846195225,1.06689155101776,-0.231671670964869,5.53807538242357
1.28,3.45755525855124,167.33268584027,168.184754408075,0.0274959535331545,1.11959141201649,1.08227586746216,-0.363354132493634,5.33415164071745
1.29,3.63279027647591,167.302399138393,168.184754408075,0.0455737346885647,1.07617314050713,1.06398904323578,-0.463697084819974,5.46684908825666
1.3,3.80802345544272,167.378279714548,168.184754408075,-0.0449509242475071,1.04915491826517,1.02571630477905,0.10768767376438,5.39629371429893
1.31,3.98325285075202,167.279950943111,168.184754408075,-0.0370324555357958,1.00866939183565,1.05765402317047,0.0710020905474207,5.84322368331249
1.32,4.15847473046588,167.299130021321,168.184754408075,0.104796860663187,1.06033551593516,1.03604757785797,-0.766001984547773,5.41731646495267
1.33,4.33370057095695,167.278355442024,168.184754408075,-0.105707071186153,1.05553612279146,1.04309892654419,0.492998179094049,5.48134539869402
1.34,4.50891855522842,167.349002108694,168.184754408075,0.0444457576639425,1.17317694540743,1.10967910289764,-0.406439007666832,5.173749120382
1.35,4.6841487510576,167.328921397396,168.184754408075,0.0402022594185436,1.07979569553722,1.08305907249451,-0.367660877280851,5.56712886590704
1.36,4.85937418714778,167.36398195644,168.184754408075,-0.0721504813140517,0.98201408563857,1.04842221736908,0.299060304843424,5.9626110059685
1.37,5.03460804550472,167.308628647909,168.184754408075,-0.0198409368680696,0.932704204848502,0.937386989593506,-0.0163887863116791,5.59720875189642
