t,theta,omega,r,i_d,i_q,i_q_ref,v_d,v_q
0,0,0,248.20589305235,-8.66362055502962e-25,0,0,0,0
0.01,0.0601634899311708,118.154708208227,248.20589305235,0.203867571844954,7.49668782419476,10,-1.3181820367273,18.8941108982915
0.02,0.246863011483602,236.121118833705,248.20589305235,0.14843107434046,7.61881630038977,10,-1.26629054489542,21.6570197621685
0.03,0.505162523212504,247.060037852825,248.20589305235,0.0671981147355804,1.45973274521584,1.4982750415802,-0.85153940320929,7.73189032055676
0.04,0.763768859513937,246.89829413673,248.20589305235,-0.0413960529676529,1.57674541525075,1.7344559431076,-0.175881250602926,8.57505718928337
0.05,1.02242830377951,246.952071437436,248.20589305235,-0.0700017137695917,1.42593809650898,1.40484201908112,-0.0230948931063814,7.54629168133426
0.06,1.28106047136873,247.259956737212,248.20589305235,-0.028579883384997,1.38067806341822,1.3793762922287,-0.289131115798814,7.74263932733826
0.07,1.53968038867224,246.939876471218,248.20589305235,-0.000167794392763543,1.56271243190658,1.6841641664505,-0.453983519705065,8.55523204676714
0.08,1.79834372383086,246.853968070139,248.20589305235,-0.0307495594534502,1.50250209141233,1.64733898639679,-0.258767981511339,8.72800139973661
0.09,2.05703272454327,247.05278334387,248.20589305235,-0.0334318617981443,1.39566704671367,1.26890051364899,-0.23878983395366,7.08896174869234
0.1,2.31566247279007,247.253145686114,248.20589305235,0.0451343802296162,1.5097671505232,1.51309835910797,-0.73261343551196,7.93382623579863
0.11,2.57431272323917,246.94438876421,248.20589305235,0.0402627072813081,1.55903723563043,1.69471836090088,-0.695212680837698,8.76468712043914
0.12,2.83301093474625,246.824697694064,248.20589305235,0.069812728551044,1.42390189522187,1.47666442394257,-0.891709009109764,8.24771671941419
0.13,3.09167469384635,247.079194605959,248.20589305235,-0.11159695520411,1.32508404399158,1.21717071533203,0.197145950442873,7.30823984846881
0.14,3.35031687535498,247.218733890259,248.20589305235,0.126305785952828,1.56888026451569,1.54262208938599,-1.22826822370131,7.83006893910992
0.15,3.60901500331173,246.848602706874,248.20589305235,0.0462227662209743,1.47563808791403,1.55803096294403,-0.742817756046982,8.4497703594222
0.16,3.86770083356414,246.887350903518,248.20589305235,-0.0756261890685036,1.38615821783536,1.36768639087677,-0.0143122613196953,7.84229658039454
0.17,4.12636163041146,247.199915048166,248.20589305235,-0.0968064126220431,1.32061939713816,1.27989137172699,0.101110052140555,7.73550206915278
0.18,4.38502482326054,247.097054167262,248.20589305235,0.0804333942137401,1.56894255433078,1.59669315814972,-0.951968972536772,8.14700775220971
0.19,4.64371680846223,246.880202862706,248.20589305235,-0.02978564312221,1.58252408344064,1.64690256118774,-0.270594508970256,8.34836086939601
0.2,4.90241614733321,247.042430343521,248.20589305235,-0.0454658665731466,1.38436778065335,1.27772319316864,-0.184074031639822,7.30212012343467
0.21,5.16107360389756,247.223425624734,248.20589305235,-0.012164808224689,1.39264170851788,1.41221261024475,-0.359872303479524,8.08020611603412
0.22,5.41972287761014,246.942703988985,248.20589305235,0.0522023151064886,1.55126864332862,1.68165791034698,-0.743973291307056,8.77268388558921
0.23,5.67842221245041,246.943326024487,248.20589305235,-0.0389958878963933,1.44834564779992,1.43155860900879,-0.191259962434476,7.86201216373826
0.24,5.93710901502388,247.096860935535,248.20589305235,-0.0514231419580423,1.27560846850223,1.21266913414001,-0.121998104197512,7.58012847792569
0.25,6.19575325900729,247.215790518882,248.20589305235,0.0185574409529707,1.54146729088727,1.5067526102066,-0.543901123737053,7.77557793561856
0.26,0.171236239328644,246.852623511902,248.20589305235,0.0458804493148432,1.4929001648608,1.60729968547821,-0.691544162406995,8.68580745826068
0.27,0.429914081162523,246.753133682909,248.20589305235,0.0377755603908841,1.390791390472,1.45308780670166,-0.653005819506012,8.3858927604488
0.28,0.688602073842481,247.201046865768,248.20589305235,-0.0599017687604685,1.32732625831037,1.21895492076874,-0.0650111679259102,7.34471387322168
0.29,0.947250388214663,247.065531811465,248.20589305235,0.0464326907477405,1.56803724307992,1.58731377124786,-0.69880593776649,8.12998707784564
0.3,1.20592715412887,246.962604948058,248.20589305235,0.0724411026531904,1.59212806656334,1.74043393135071,-0.870560912981708,8.9098375258171
0.31,1.46463083346623,247.07533341876,248.20589305235,-0.0139660967125903,1.42623243229424,1.292484998703,-0.346669398764051,7.18554004451983
0.32,1.72328811011374,247.233807353376,248.20589305235,-0.00423537999162837,1.40192453985954,1.43657219409943,-0.42264751140525,8.21402940173738
0.33,1.9819845912812,246.961845896767,248.20589305235,0.0208502010988081,1.52215449115614,1.53108942508698,-0.559974295154286,8.005379215471
0.34,2.24067129919993,246.815249217221,248.20589305235,-0.0211196495143764,1.44897707135642,1.55896425247192,-0.317756596869005,8.60930277420164
0.35,2.49936051237069,247.050613932628,248.20589305235,-0.0303800970955552,1.29197960016199,1.19043970108032,-0.278771795763785,7.33185472504904
0.36,2.75800540998135,247.218585672264,248.20589305235,0.072373713944318,1.53551594859091,1.55462098121643,-0.909225474324999,8.08523893548059
0.37,3.01668709828598,246.834315971558,248.20589305235,0.022413141780128,1.49083438869646,1.60011041164398,-0.605840299555526,8.61554506075943
0.38,3.27536089622505,246.810756429726,248.20589305235,-0.0392511059350023,1.40068107502666,1.46626853942871,-0.225320418525221,8.37200554550856
0.39,3.53406662706715,247.139492258254,248.20589305235,0.03239139787439,1.31792972058019,1.25047290325165,-0.684847261895986,7.52460585171524
0.4,3.792701101837,247.073181251335,248.20589305235,0.102196013065979,1.56080002500097,1.61058914661407,-1.09643944033024,8.26876284274088
0.41,4.05139268972303,246.9052504159,248.20589305235,0.0277071643846956,1.47228360659972,1.4834315776825,-0.620274409213204,8.01818897008615
0.42,4.31008832707795,246.874894562277,248.20589305235,0.0275209375873959,1.3880609946417,1.33461713790894,-0.617322692811685,7.61277663742585
0.43,4.56875096489095,247.163623255697,248.20589305235,-0.0410811250434286,1.31635261886748,1.30856394767761,-0.207024264981661,7.89973189133323
0.44,4.82739578474062,247.088942373531,248.20589305235,0.0254394151221909,1.57855720147728,1.59524011611938,-0.590294136454092,8.08010472026766
0.45,5.08607768400369,246.864664756176,248.20589305235,-0.0436940655914988,1.45377363514525,1.50898051261902,-0.154915475685138,8.31604990131066
0.46,5.34475111660143,247.052004518766,248.20589305235,-0.0215431300888192,1.27236424573893,1.14131438732147,-0.299046248403917,7.2157934031228
0.47,5.60341774116348,247.254870846716,248.20589305235,0.0599820961628182,1.49637547237812,1.47006273269653,-0.77355607646744,7.83907946043863
0.48,5.86209740807125,246.906974460533,248.20589305235,-0.00947345203726013,1.50442095829224,1.54556500911713,-0.349289255280692,8.22832909930482
0.49,6.12078963194385,246.971334386295,248.20589305235,-0.0087500544221778,1.44900706989808,1.40357053279877,-0.342129354777529,7.69365358687181
0.5,0.0962861051955599,247.10511323284,248.20589305235,-0.036616481135074,1.27716749746702,1.20473480224609,-0.201294668588536,7.53212094746863
0.51,0.354931862606229,247.150898473387,248.20589305235,0.107456373526449,1.56424845080186,1.54802656173706,-1.10342816500257,7.89329400885622
0.52,0.613609857326395,246.868690223641,248.20589305235,0.0694172703652629,1.51060493437943,1.65722286701202,-0.862032425604239,8.87606044132669
0.53,0.872311851836983,247.085241753491,248.20589305235,-0.0757794939405549,1.4357848480881,1.29669272899628,0.000385360575890614,7.13653283722257
0.54,1.13098487534934,247.09959504817,248.20589305235,-0.10992480595656,1.26452877887464,1.21095263957977,0.19322476046881,7.64581651212084
0.55,1.38963493880864,247.000186914869,248.20589305235,0.00964347956336731,1.55957493815148,1.6011266708374,-0.484184157748167,8.23986602079302
0.56,1.64832317604677,246.909104446218,248.20589305235,0.0265802072970329,1.45897780383504,1.46202290058136,-0.59032484204364,8.00356341253094
0.57,1.90702579310722,247.090006157491,248.20589305235,-0.065149854639226,1.40807222841946,1.29796481132507,-0.0586306347494742,7.28882789013717
0.58,2.16568345289738,247.189760130964,248.20589305235,-0.0546498038111846,1.38403267238962,1.45300471782684,-0.12572685248646,8.37811031884565
0.59,2.42433308593597,247.044469086034,248.20589305235,0.00966625333337107,1.55401718773419,1.56565642356873,-0.507161124917126,8.06784302935096
0.6,2.68305792662565,246.908438692709,248.20589305235,-0.0138518902472359,1.4484370625187,1.45767164230347,-0.34992105609813,7.98431566191785
0.61,2.94174165249017,247.094374019048,248.20589305235,-0.0859658774677269,1.34712446380219,1.27491509914398,0.0816202870367341,7.4931891577691
0.62,3.20038530888326,247.201198531293,248.20589305235,0.063962528846518,1.51483500569245,1.52961373329163,-0.802365641700989,8.04818910844604
0.63,3.45907949247967,246.893691796404,248.20589305235,0.0017483076317133,1.48348781287441,1.51074171066284,-0.426958738106786,8.09404998340689
0.64,3.71777612298212,246.99464370571,248.20589305235,-0.0251311321791028,1.39852824357525,1.31201875209808,-0.279122627707946,7.39562342335987
0.65,3.97643757840437,247.187638113096,248.20589305235,-0.0850608064831534,1.43027888671775,1.40809452533722,0.0722942429839445,7.80455252184074
0.66,4.23509916735355,247.068467710427,248.20589305235,0.0389054566083228,1.57184787817218,1.59766376018524,-0.683467851493177,8.09647971564425
0.67,4.49377329477027,246.939046029668,248.20589305235,0.0798490476550425,1.61896735625482,1.70304346084595,-0.922441956539529,8.4569272017827
0.68,4.75247603824485,247.019283463974,248.20589305235,-0.0446820213544878,1.37443512797375,1.28709471225739,-0.184078256582267,7.40127179909225
0.69,5.0111134744448,247.199290548484,248.20589305235,-0.0228949081697215,1.39416160753161,1.42088413238525,-0.315085974724552,8.14099617065706
0.7,5.26978065273248,246.958354323591,248.20589305235,0.0661487355325971,1.52614622992084,1.60433340072632,-0.8419714000757,8.45235793654939
0.71,5.52849827710428,246.97940856045,248.20589305235,-0.0553993764045915,1.45046739287044,1.38826656341553,-0.113306591307588,7.55588574511027
0.72,5.78718044444423,247.149482260999,248.20589305235,-0.0378322883956168,1.36722257388119,1.25191795825958,-0.231322566161897,7.23844650635938
0.73,6.04581840204299,247.196468030364,248.20589305235,0.0912368203268618,1.59144907091309,1.60060703754425,-0.988625094891744,8.02649223510258
0.74,0.0213236867472695,246.840277336077,248.20589305235,0.0475916497456151,1.47941434672332,1.58270621299744,-0.698422484822507,8.56758493607353
0.75,0.28000374125865,246.905123108625,248.20589305235,-0.0421343362226784,1.40565739393063,1.37930846214294,-0.163250625824901,7.79796063549752
0.76,0.538699107509924,247.12897454497,248.20589305235,-0.0858629922025903,1.30298558857425,1.25438690185547,0.0836999966058796,7.62844829908918
0.77,0.797355887854692,247.127372428602,248.20589305235,0.0484396415911814,1.48262368601826,1.46245169639587,-0.725133580924275,7.80736022851522
0.78,1.05603579321042,246.816247180674,248.20589305235,0.0283970484681841,1.46690454405254,1.58454275131226,-0.60231871769192,8.63545146168143
0.79,1.31471812132194,247.059718675996,248.20589305235,-0.020959465332809,1.41459010928702,1.29151332378387,-0.30168613260073,7.19788450298348
0.8,1.57337834824801,247.237635465643,248.20589305235,-0.0145048151745625,1.42838255180026,1.40850102901459,-0.36398734984735,7.8328502995312
0.81,1.83203603473132,246.905879409568,248.20589305235,0.0757097333904063,1.51913829633626,1.66177678108215,-0.89721726168802,8.82492970606819
0.82,2.09073134636653,246.879626002956,248.20589305235,-0.0102702232613372,1.45362943659601,1.50399672985077,-0.39663998244996,8.2585212903005
0.83,2.34940862560986,246.967331603512,248.20589305235,-0.0557451868253762,1.22869667967635,1.14739620685577,-0.137923233315775,7.48082760523394
0.84,2.60805928294551,247.212622455018,248.20589305235,0.11284181450408,1.58997148731925,1.59115982055664,-1.15298216993072,7.99403656659951
0.85,2.86672997294533,246.850950009484,248.20589305235,0.0326816333317133,1.49909308043211,1.62447726726532,-0.664284993018299,8.75075672410324
0.86,3.12540881267518,246.841304713425,248.20589305235,-0.0557463150219079,1.40393349171491,1.43248403072357,-0.124798898098779,8.18233672915041
0.87,3.38410389579591,247.21222322342,248.20589305235,-0.0343104351970522,1.38415041472322,1.28561174869537,-0.269156112140761,7.39292122988201
0.88,3.64275062793537,247.067593605743,248.20589305235,0.0952313756616918,1.56230002523776,1.63590431213379,-1.03014477546633,8.44860992399879
0.89,3.90142666909139,246.941110896504,248.20589305235,0.0778751532747862,1.55769399283848,1.66271770000458,-0.912458406000446,8.64667087781002
0.9,4.1601379880414,247.040301816918,248.20589305235,-0.0531441561108712,1.37202049181004,1.25110483169556,-0.163273434465577,7.25279777464936
0.91,4.41880012084064,247.26722660618,248.20589305235,-0.0634131634403329,1.3744194939372,1.33424055576324,-0.108498439914269,7.7543237970518
0.92,4.67746054402373,246.89970277982,248.20589305235,0.034093768573722,1.52628533777534,1.63401472568512,-0.676128580744012,8.64390733308119
0.93,4.93616015065032,246.806477628177,248.20589305235,0.0141181377770988,1.45039851584242,1.55884325504303,-0.560141681815956,8.62062656597416
0.94,5.19484632275984,247.098206919033,248.20589305235,-0.0833456607277854,1.41547784217716,1.32233905792236,0.0142901217603028,7.40657924280987
0.95,5.45351738817514,247.1002869046,248.20589305235,-0.0516634629403189,1.31323991771443,1.32666003704071,-0.171881248006352,8.03845254850599
0.96,5.71218672928687,246.947628759674,248.20589305235,-0.00957399433219608,1.60085686250861,1.74022996425629,-0.409032052780949,8.79968256198495
0.97,5.97089801777523,246.926206249285,248.20589305235,-0.0142887997889352,1.44038248629724,1.43543446063995,-0.376002145969741,7.88444990871715
0.98,6.22955604546346,247.123016076016,248.20589305235,-0.0752269596949515,1.2886381935613,1.263179063797,-0.00959853268603772,7.79922763183731
0.99,0.205008537596878,247.123214593295,248.20589305235,0.0984646460132257,1.57198072755326,1.61094236373901,-1.05680090915718,8.22234073777151
1,0.463692706999943,246.839077796346,248.20589305235,0.0595079982719033,1.46795777795183,1.55516970157623,-0.810591597050861,8.50635293493921
1.01,0.72239359327013,247.057045434038,248.20589305235,-0.0519486084741804,1.43973459542489,1.36012780666351,-0.148321252774643,7.48181347795572
1.02,0.981055198532431,247.287807952468,248.20589305235,-0.0443647883471996,1.38367431146873,1.3557995557785,-0.186116436830025,7.81529947821322
1.03,1.23971891589472,246.927547646195,248.20589305235,-0.0359589792587628,1.55805262155249,1.66612005233765,-0.211662947600562,8.63369275096039
1.04,1.4984107281482,246.925305221595,248.20589305235,-0.0428105028253675,1.54707375879663,1.66009783744812,-0.16893610719841,8.64849379453853
1.05,1.75712047373245,246.993988307797,248.20589305235,-0.0877053052114125,1.33559686144365,1.23466408252716,0.109114660878027,7.32404571304478
1.06,2.01576369354807,247.169613374123,248.20589305235,0.000117925613854271,1.46949188286186,1.45932745933533,-0.43597298962551,7.90605030990647
1.07,2.27441807680828,246.956559688568,248.20589305235,0.0295144935136764,1.55993560393882,1.6775997877121,-0.60145432942606,8.70410634388642
1.08,2.53311242690638,246.942948528176,248.20589305235,0.0517899228643284,1.45372008897877,1.44407641887665,-0.741775109751547,7.92425949121546
1.09,2.79178643550183,247.107229861724,248.20589305235,-0.0816732561300756,1.36346051154302,1.2950587272644,0.0389943762413418,7.58490332747657
1.1,3.05044228434949,247.186405020902,248.20589305235,0.071742819223548,1.48794904959731,1.52721953392029,-0.874650646761317,8.24238703174598
1.11,3.30911648213805,246.895332456013,248.20589305235,-0.0317500529729902,1.53016569009902,1.64158725738525,-0.223630712689413,8.68017567980491
1.12,3.5678170891116,247.0057959844,248.20589305235,0.00227131596364891,1.43126763166565,1.32026135921478,-0.432898892738802,7.32448294582956
1.13,3.8264803832856,247.240341856999,248.20589305235,-0.00111756304797342,1.33114414080879,1.2762998342514,-0.440981535925718,7.68471217859866
1.14,4.08514235801986,247.018181579333,248.20589305235,0.0745067001717588,1.54731110294523,1.60249614715576,-0.88076711896096,8.34093507374225
1.15,4.34382810664124,246.847672597648,248.20589305235,0.0214461310470019,1.46076565993124,1.52691829204559,-0.540896707785755,8.40187051395565
1.16,4.60251747160091,247.04820253406,248.20589305235,-0.042516581136011,1.38746476861769,1.30493497848511,-0.176872435651138,7.50771523145196
1.17,4.86118206629896,247.248854882021,248.20589305235,0.011536292766224,1.47028761631584,1.42614555358887,-0.495236621757005,7.74362073195325
1.18,5.11985278485708,246.95272832491,248.20589305235,0.032839044337405,1.55433211340494,1.67147219181061,-0.604103982516781,8.7052289272574
1.19,5.37855052072549,246.884414696754,248.20589305235,0.0502227534178941,1.44949236379025,1.48485350608826,-0.709223871914782,8.1975494562412
1.2,5.63723696994681,247.022945571109,248.20589305235,-0.0955910968549938,1.26563362308219,1.20368015766144,0.130396362017297,7.6043590386016
1.21,5.89587946446369,247.232369759422,248.20589305235,0.109961097175931,1.49910304223888,1.4918018579483,-1.11075102653939,7.96554802340621
1.22,6.15457729632645,246.903543735591,248.20589305235,0.0603710358569181,1.47905667168054,1.49937438964844,-0.80165028939347,8.09490893784142
1.23,0.1300849534083,246.837115281347,248.20589305235,-0.0497442402740557,1.39186087614478,1.40733349323273,-0.138943795081794,8.05391563847661
1.24,0.388764452122036,247.145948316098,248.20589305235,-0.0207956795732462,1.28522222087141,1.21043992042542,-0.326386400998865,7.51176037564673
1.25,0.647412930411264,247.031401415428,248.20589305235,0.0322766786731962,1.57291388544915,1.63740181922913,-0.621500574516568,8.36930275634261
1.26,0.906087623615974,246.93876810478,248.20589305235,0.0717803313189492,1.62797461509772,1.73352241516113,-0.867607565287695,8.62520841656412
1.27,1.16477997328959,246.937750295978,248.20589305235,-0.0431717563707433,1.3878893300875,1.31147623062134,-0.18203206832838,7.52192829937385
1.28,1.42343227411806,247.196297125662,248.20589305235,0.0122425070241758,1.43412274673805,1.41048789024353,-0.529673529351557,7.87132171640093
1.29,1.68211563768583,246.917869829095,248.20589305235,0.0833961253441432,1.50422960436721,1.5950208902359,-0.945308136056389,8.52662724578612
1.3,1.94079937913919,246.870188976856,248.20589305235,-0.039696081735996,1.4488599285419,1.49148535728455,-0.188837916839584,8.24258593461187
1.31,2.19947183333487,247.115368062607,248.20589305235,-0.032198417203129,1.36258292377554,1.20983779430389,-0.240291603041123,7.08676604329766
1.32,2.45812602278995,247.206706312293,248.20589305235,0.0668927584675996,1.5343962594083,1.55066812038422,-0.831642089247529,8.11797356106725
1.33,2.71680438659502,246.921886752038,248.20589305235,0.0107326061950101,1.51499209811126,1.57779765129089,-0.489575508619483,8.39748156954863
1.34,2.97550156627081,246.976786476457,248.20589305235,-0.0669082225430475,1.43431583948555,1.38736271858215,-0.011429435483336,7.71745696635603
1.35,3.23417459855643,247.204781371577,248.20589305235,-0.0373490340235795,1.28591169480509,1.19656658172607,-0.212038650115789,7.47390066743583
1.36,3.49281960239755,247.056976867528,248.20589305235,0.0869092978250019,1.56437496479271,1.63111627101898,-0.9691351615266,8.43724857530469
1.37,3.75149941028635,246.923662897613,248.20589305235,0.0510720958520763,1.55686798815817,1.67468619346619,-0.746542426203301,8.74474333929857
1.38,4.01020912594402,246.997016528662,248.20589305235,-0.0614898781814553,1.40103674363297,1.32352793216705,-0.0927265282776323,7.53455828157074
