t,theta,omega,r,i_d,i_q,i_q_ref,v_d,v_q
0,0,0,204.275702533405,-8.95567681093973e-25,0,0,0,0
0.01,0.0637642374969356,125.6235287553,204.275702533405,0.202736692900207,7.45391388567299,10,-1.35416897195753,19.1618027307107
0.02,0.252605069523937,203.752709119077,204.275702533405,-0.00525029588205839,2.39569831714047,3.00390291213989,-0.325429209142512,9.55364406759762
0.03,0.46548096417047,203.258950206058,204.275702533405,-0.0163018277561354,1.31519520188578,1.31673336029053,-0.245340989464064,5.9401804327178
0.04,0.678354504302476,203.376861594916,204.275702533405,0.00557074601242086,1.16096689935908,1.23232448101044,-0.389510972807605,6.40000442224906
0.05,0.891216711964704,203.285432997023,204.275702533405,-0.019781266550933,1.28404022112748,1.24863576889038,-0.22510085103351,5.80904194661328
0.06,1.10407581857875,203.259710765448,204.275702533405,0.0584036766219605,1.0788027631218,1.19288468360901,-0.709587048939272,6.75130258609318
0.07,1.31694980548914,203.355119072288,204.275702533405,-0.0057025691925324,1.28501607357825,1.24749672412872,-0.322984587752664,5.8907327606333
0.08,1.52982695853327,203.252863750723,204.275702533405,0.0240439134598684,1.14107419414353,1.18393182754517,-0.508075737893998,6.36926448515612
0.09,1.74270758845722,203.302415165687,204.275702533405,-0.00493462604430606,1.02485635483091,1.03039634227753,-0.349436772429589,6.18545428872871
0.1,1.9555667777795,203.275434772754,204.275702533405,0.0479987001119253,1.29698659426217,1.25907814502716,-0.659817103605706,5.95413487757763
0.11,2.16845340814241,203.354835374021,204.275702533405,0.00115546042772341,1.08474990140957,1.15578973293304,-0.375177903766751,6.62062443511984
0.12,2.38133599633168,203.27998497697,204.275702533405,-0.0435057314681235,1.27450698589186,1.22815179824829,-0.0775334962862356,5.92625413528897
0.13,2.59419501916117,203.359553767045,204.275702533405,-0.0612902561816751,1.21659585900821,1.24084985256195,0.00959809334554285,6.38011991285342
0.14,2.80709868608722,203.312580729377,204.275702533405,-0.0563791146965215,1.2454170600391,1.19921290874481,-0.0237900418967485,5.95955158457581
0.15,3.0199614517555,203.286889892254,204.275702533405,0.0681438797432717,1.33032387200545,1.36791431903839,-0.761192431279893,6.48097855651038
0.16,3.2328608301198,203.329460916344,204.275702533405,-0.0672717486330715,1.15554888356812,1.16751885414124,0.0536073578956494,6.33309669867411
0.17,3.44573108976546,203.192487054128,204.275702533405,0.100458902390578,1.2951289053117,1.37470161914825,-0.941646841832195,6.75413071777625
0.18,3.65861873051418,203.302875243117,204.275702533405,-0.00562217836795181,1.1014216456131,1.20192527770996,-0.324848694910286,6.88341801290606
0.19,3.87152751073252,203.263554118812,204.275702533405,-0.0447593101795498,1.25027107614699,1.19524681568146,-0.0825631278287645,5.92263823492334
0.2,4.08440714174332,203.300968293959,204.275702533405,0.0555576677415446,1.18861841510484,1.16743075847626,-0.70027874574761,6.1165022360968
0.21,4.29730800960191,203.24312268115,204.275702533405,0.0141167258356718,1.18078481547452,1.1295200586319,-0.440208192157448,5.94108939870064
0.22,4.51018244944902,203.359751465441,204.275702533405,0.0522885111881899,1.22963805436142,1.2451514005661,-0.643464213367522,6.34770857020651
0.23,4.72307786190741,203.323454101802,204.275702533405,-0.0768025980403467,1.13104675347802,1.15900337696075,0.129353363843987,6.42676608600446
0.24,4.93596397277198,203.29690156253,204.275702533405,0.0237266744502253,1.3005292490404,1.27373111248016,-0.469753230381872,6.09443509646557
0.25,5.14883460700655,203.269612058574,204.275702533405,0.0718557508833725,1.07432644689503,1.13412940502167,-0.78549469039483,6.63728063662089
0.26,5.36171975653665,203.307484680729,204.275702533405,-0.0151458382221306,1.26409188203644,1.19355142116547,-0.2342676359392,5.87874691805292
0.27,5.57461810643314,203.327047055274,204.275702533405,0.028232442645092,1.22081744371785,1.2401237487793,-0.484602775439417,6.37748854543706
0.28,5.7875043650263,203.305405007303,204.275702533405,0.00102451914287771,1.11367777478745,1.0683411359787,-0.34817552686919,6.02208016991153
0.29,6.00037610207928,203.178056892758,204.275702533405,0.0379328498780316,1.30457185964356,1.39618480205536,-0.566338805083235,6.84811733374042
0.3,6.2132849573769,203.374641845108,204.275702533405,0.0063704436479543,1.09518689931466,1.14953935146332,-0.399881376274864,6.60224243959019
0.31,0.142997235534957,203.333907339835,204.275702533405,-0.000333903502996558,1.29539094044503,1.22592115402222,-0.363397527252749,5.84051586252894
0.32,0.355868311438019,203.280044636029,204.275702533405,0.0398920064795899,1.09121556254218,1.1258397102356,-0.602584812344862,6.48083859021959
0.33,0.568766974376408,203.225627896788,204.275702533405,-0.0168366760291684,1.25804122825316,1.30745816230774,-0.242849377929014,6.57169080217716
0.34,0.781658564937579,203.311662220716,204.275702533405,0.079282108304752,1.25477193495559,1.23508596420288,-0.798319269632942,6.1310502562879
0.35,0.994568549416875,203.304817838572,204.275702533405,-0.0790415312256825,1.08451439520624,1.12468373775482,0.126407203740537,6.47796862870928
0.36,1.20746505884355,203.274861703251,204.275702533405,0.0428103873142015,1.24303297246801,1.20605635643005,-0.601942562818214,5.98801938423253
0.37,1.42033184317225,203.306718862245,204.275702533405,0.0714339519331773,1.11144522935256,1.19380009174347,-0.793299334595928,6.74556875683476
0.38,1.63322373698663,203.277232542226,204.275702533405,-0.0479462047703655,1.26414192938597,1.20801103115082,-0.0704162145983259,5.91585135025104
0.39,1.84612846610795,203.305085829971,204.275702533405,0.146711911074184,1.14028724470522,1.23638141155243,-1.24133313120198,6.78230838815851
0.4,2.05902883908693,203.310602284004,204.275702533405,-0.0509169643528376,1.19156095752406,1.18765342235565,-0.0212045291422188,6.19254608324456
0.41,2.27191854538673,203.333947497014,204.275702533405,-0.0030105677671057,1.2358048467346,1.25954139232635,-0.28857174275844,6.33105772984747
0.42,2.48481300517818,203.354788788621,204.275702533405,-0.0743004978206558,1.11288571180596,1.20695173740387,0.0991368990068253,6.7703208028094
0.43,2.69770100510176,203.203845529902,204.275702533405,-0.0703991996686043,1.27490368816248,1.25456285476685,0.0979149246107986,6.07168674499304
0.44,2.91058843854855,203.352900408468,204.275702533405,0.00909093043190016,1.13448925349887,1.1926691532135,-0.377588121465513,6.54717309269097
0.45,3.12348463542515,203.254173614416,204.275702533405,0.0568377520177416,1.27221692637957,1.23366343975067,-0.657091958430801,5.96836965974175
0.46,3.33634606679852,203.34311192574,204.275702533405,0.117831778535522,1.20552607077335,1.27264809608459,-1.03450902808862,6.62844835785445
0.47,3.54922941788386,203.317437274051,204.275702533405,-0.0380553783395394,1.24911729190293,1.24203169345856,-0.0858968655653549,6.22138087871028
0.48,3.76211160675448,203.309447754888,204.275702533405,-0.00722998902768024,1.22067420880723,1.23420166969299,-0.269514349047216,6.33202160493769
0.49,3.97501134762785,203.334792690621,204.275702533405,-0.0520099406113423,1.06424424818758,1.16182935237885,-0.0117703010585783,6.83970390926545
0.5,4.18789369429032,203.162056949094,204.275702533405,0.0311761958028003,1.28423480326622,1.37501907348633,-0.521708250753694,6.80132156216944
0.51,4.40075692989166,203.332289808281,204.275702533405,0.049994200329354,1.10403722943298,1.13593912124634,-0.66333054834316,6.48682963180091
0.52,4.61365912614321,203.349868305974,204.275702533405,-0.0382090707141464,1.17655968441797,1.1832115650177,-0.12815538714284,6.33322098171634
0.53,4.82653582587581,203.286975236748,204.275702533405,0.0679238264310351,1.24279156468269,1.21458554267883,-0.758975810826044,6.12078275592727
0.54,5.03944171377516,203.346956496484,204.275702533405,-0.0748578535895946,1.24081254542873,1.2554669380188,0.117495125624665,6.37242587980129
0.55,5.25231468462252,203.280367499532,204.275702533405,0.0278756165364044,1.32003564399575,1.32114446163177,-0.49535844267609,6.29848388561448
0.56,5.46522554526191,203.368050932836,204.275702533405,-0.0188393805514615,1.07330791920639,1.13590228557587,-0.222495425857149,6.64402160789769
0.57,5.67812093733131,203.228415673267,204.275702533405,0.0262404122987812,1.26742438273352,1.23739635944366,-0.457311619430189,6.07568018979223
0.58,5.89100917165593,203.38095041437,204.275702533405,-0.0385049188693153,1.17781867907717,1.17116677761078,-0.0796528902918799,6.20345891209744
0.59,6.10391101124171,203.301539028383,204.275702533405,-0.0363528222966212,1.13063387241016,1.14362156391144,-0.106043658758573,6.31730794201584
0.6,0.033601890187569,203.307562095683,204.275702533405,0.0625971057034632,1.27476454628781,1.26837635040283,-0.724173665008793,6.20068556802091
0.61,0.246483072866742,203.379813699496,204.275702533405,-0.00674115402199235,1.07352174904911,1.1166023015976,-0.341071587942753,6.54095830244766
0.62,0.459361772573786,203.266994756924,204.275702533405,-0.0390548227768251,1.18009895550592,1.18176054954529,-0.122034261144112,6.29296727107841
0.63,0.67225601800509,203.276585441774,204.275702533405,-0.021060569907808,1.04869353668333,1.15150547027588,-0.220491464823471,6.89573627103766
0.64,0.885149377833786,203.292007226273,204.275702533405,-0.0283125683866272,1.28921656004532,1.27908301353455,-0.163409087059422,6.21775799337403
0.65,1.09804645012566,203.369872020049,204.275702533405,-0.0298978142993913,1.1830715106409,1.17389750480652,-0.143656571285777,6.19483983905544
0.66,1.3109513131372,203.281440786869,204.275702533405,-0.0764503750469785,1.16353260588636,1.12968611717224,0.126724636865242,6.04196060949411
0.67,1.52384831537513,203.337644997094,204.275702533405,0.0910091505766252,1.2135761670322,1.23989737033844,-0.869019251556883,6.36213978413256
0.68,1.73675581371769,203.280707594741,204.275702533405,0.0294255649394402,1.02232950131903,1.04765427112579,-0.527174993977505,6.34798400234274
0.69,1.94962749966275,203.243123037995,204.275702533405,-0.0314572100664637,1.16720676691578,1.17728710174561,-0.156832098103551,6.27032247552862
0.7,2.16249032063747,203.271848276557,204.275702533405,0.034289405981198,1.00688529955541,1.11575472354889,-0.556242972698912,6.90897759749991
0.71,2.37538339438032,203.212258139233,204.275702533405,-0.0448814280128242,1.23694642482515,1.21018040180206,-0.0918366803046688,6.10046872283443
0.72,2.58825291708796,203.298476262924,204.275702533405,0.0541212729494669,1.18972279260386,1.17317318916321,-0.711036470993328,6.17799473648113
0.73,2.80116865604912,203.310392423349,204.275702533405,-0.0665728916296681,1.06683335658487,1.10631096363068,0.00209997777439996,6.49634628098631
0.74,3.01404607410897,203.291094404074,204.275702533405,0.0661370963356842,1.18091171457935,1.17783761024475,-0.768551283129315,6.23364720517156
0.75,3.2269392900529,203.328715527195,204.275702533405,-0.0819483943550569,1.12965732016667,1.1466566324234,0.109120765150481,6.36233751745448
0.76,3.43982636348317,203.252441668648,204.275702533405,0.0132070256631572,1.2719679085179,1.21890592575073,-0.434225443332498,5.93856924235463
0.77,3.65272723579515,203.32004583562,204.275702533405,0.0712374354093616,1.12053841687009,1.20888519287109,-0.788333323252789,6.76260420382665
0.78,3.86562265874515,203.305604345086,204.275702533405,-0.0167670595251457,1.26301981199555,1.19297027587891,-0.231652303957082,5.81695485203043
0.79,4.07850969326199,203.332112467381,204.275702533405,0.0061400143426944,1.18449970991909,1.22648966312408,-0.371571330465082,6.47324852925786
0.8,4.29140833967053,203.285912566307,204.275702533405,-0.0621238296682167,1.05761798452332,1.1059478521347,0.0338512545391706,6.52509111646076
0.81,4.50428688844977,203.317844274116,204.275702533405,0.0955295027319105,1.20888661717463,1.23366093635559,-0.901596369777701,6.37795720418962
0.82,4.71717002879696,203.275704972258,204.275702533405,0.00454415458724167,1.03700098894612,1.13179528713226,-0.370307037932085,6.81739284567457
0.83,4.93005810428044,203.276813115974,204.275702533405,-0.0495439924734173,1.25510111929253,1.16926670074463,-0.00947846933952162,5.7359030678678
0.84,5.1429614776649,203.304319395986,204.275702533405,0.0758130354201917,1.14357479063056,1.1927365064621,-0.782288343687724,6.51006916102787
0.85,5.35586203608512,203.299682715598,204.275702533405,-0.0433248178140222,1.24998211242363,1.21017682552338,-0.0591879244936525,5.98188800586834
0.86,5.56873483159488,203.361289533355,204.275702533405,-0.0165665037158305,1.26056471359653,1.30060541629791,-0.229035988381341,6.46939264535596
0.87,5.78162137480635,203.288463901482,204.275702533405,-0.104809043737424,1.02654011687795,1.10926580429077,0.297353616185546,6.75098880464857
0.88,5.99450512242731,203.278991622781,204.275702533405,0.0202911782768611,1.17502666127963,1.16491663455963,-0.432070293297754,6.18431279920584
0.89,6.2073842770878,203.345020664999,204.275702533405,0.0831640023690143,1.10153268850569,1.1670229434967,-0.83270287732427,6.6538505519584
0.9,0.137099629186778,203.312206692574,204.275702533405,-0.0464088171217213,1.27664653446098,1.21515345573425,-0.0501707598268543,5.87607161980069
0.91,0.350000864036964,203.304910377454,204.275702533405,0.148264658105296,1.13992609833867,1.23383581638336,-1.25411821083689,6.77264983342269
0.92,0.562907455572962,203.291061377171,204.275702533405,-0.08182239332685,1.16918823001588,1.12239480018616,0.146671605655086,5.92285896108384
0.93,0.775772792787272,203.354741570662,204.275702533405,0.0769289306792373,1.32995015402325,1.28818297386169,-0.796579126788312,5.96979851924288
0.94,0.988649876703828,203.387278626155,204.275702533405,-0.0704654597150149,1.17191294450171,1.17274487018585,0.0744275613271315,6.26541217661144
0.95,1.20155516883623,203.27290887102,204.275702533405,-0.0439304971338076,1.28806391123455,1.22929883003235,-0.0712092809257392,5.86935751022754
0.96,1.41444528387932,203.40283726633,204.275702533405,-0.0458263025678137,1.16738979185817,1.24933612346649,-0.055881903966922,6.71119692919406
0.97,1.62733361198508,203.256044645588,204.275702533405,0.0529180352220346,1.271880560331,1.23057591915131,-0.625990223836896,5.98311879514746
0.98,1.84019916321717,203.34896830764,204.275702533405,0.114314138482902,1.20633748901394,1.26637625694275,-1.00056350876379,6.61036494786944
0.99,2.05310411747856,203.340783300032,204.275702533405,0.0222924554012544,1.12736548869617,1.11227607727051,-0.451483899310483,6.16735530514667
1,2.26598695167291,203.224519362209,204.275702533405,0.0602274924146131,1.28319451536645,1.26259458065033,-0.678820628962805,6.11771674045075
1.01,2.47888037370043,203.391300830002,204.275702533405,-0.0349544978678873,1.09772245927648,1.20133316516876,-0.136641118682861,6.87571811188749
1.02,2.69176879490503,203.234544857805,204.275702533405,0.0294804116983917,1.28731244611266,1.29747521877289,-0.542479641236751,6.31241549431326
1.03,2.90465835332021,203.325111596148,204.275702533405,0.0421459042629761,1.14864486046987,1.19558691978455,-0.630567356712573,6.52169632768343
1.04,3.1175469983554,203.153482690344,204.275702533405,-0.0107457984673375,1.23840066110626,1.27549171447754,-0.299254565053373,6.48242190893441
1.05,3.33040852125757,203.366967506918,204.275702533405,0.0543903790559221,1.28884928722939,1.25991582870483,-0.690929433492317,6.11544954842526
1.06,3.54331871927608,203.311406483177,204.275702533405,-0.0264954238835245,1.00890286971892,1.03637290000916,-0.219198114639635,6.45105505146923
1.07,3.75617117307869,203.240908976316,204.275702533405,-0.0229677828712795,1.32282000297087,1.36719751358032,-0.244880388373265,6.58909029592838
1.08,3.96907005867967,203.413612168909,204.275702533405,-0.0868851508203707,1.09407468499917,1.18213617801666,0.130000969782969,6.84793213723623
1.09,4.18194872302965,203.189627058455,204.275702533405,-0.0289094629830975,1.25774048801048,1.27014815807343,-0.203131211521559,6.4125004672657
1.1,4.39484573832382,203.365909902095,204.275702533405,-0.0336089930200217,1.18462414676344,1.19962775707245,-0.16893092862968,6.40354581721704
1.11,4.60776677188092,203.275293575103,204.275702533405,-0.102017067948026,1.17886824330053,1.14078259468079,0.235421404031966,6.05766983938373
1.12,4.82065909507962,203.2841101718,204.275702533405,0.0398614437251528,1.252576392489,1.20752143859863,-0.612301764366946,5.9869575937136
1.13,5.03355086701161,203.35391510174,204.275702533405,-0.10117860118531,1.13962098960372,1.14422750473022,0.237918273039136,6.30867333744238
1.14,5.24643092917686,203.227751516262,204.275702533405,0.0436349522990728,1.30090900563101,1.33282434940338,-0.614803776444335,6.46927566998119
1.15,5.45932682274804,203.391124948837,204.275702533405,0.0552205577404637,1.2080427275918,1.22079622745514,-0.720383315071339,6.35116006370464
1.16,5.67221884594438,203.231980815211,204.275702533405,-0.0273220303661159,1.25615155458964,1.2299485206604,-0.2080334447682,6.12474210407113
1.17,5.88511776916449,203.384206092226,204.275702533405,-0.0685417862236578,1.21695638477406,1.20836544036865,0.050924557950541,6.19627236889939
1.18,6.09802257407875,203.312711242782,204.275702533405,-0.0877753153882833,1.11718680385817,1.13547348976135,0.183057822469999,6.35632789424269
1.19,0.027706767431507,203.333711486231,204.275702533405,0.0398401936057168,1.33517921513659,1.32072818279266,-0.567150524398066,6.16501117405408
1.2,0.240601438812085,203.382946483269,204.275702533405,0.0554073589291622,1.08321055853582,1.11297082901001,-0.698206758943059,6.44467240778826
1.21,0.453500496115002,203.245882066114,204.275702533405,-0.0345419067002201,1.16724926384362,1.17397356033325,-0.147333066447417,6.27354353810169
1.22,0.666363067705436,203.316798765945,204.275702533405,0.0422527713533246,1.06775347017188,1.17386710643768,-0.623444802485822,6.91348231470441
1.23,0.879253991879295,203.229707330356,204.275702533405,-0.0476265487883259,1.23653888242264,1.18816816806793,-0.0796231317400886,5.99916087788713
1.24,1.09213219907113,203.289935836872,204.275702533405,0.00994733067033857,1.12725665112529,1.13815319538116,-0.439514693053339,6.35188353171049
1.25,1.30503466264456,203.327344940039,204.275702533405,-0.0258873677961838,1.10411253800077,1.12555801868439,-0.232115729382925,6.41514886557648
1.26,1.51790176681503,203.320276340562,204.275702533405,0.00336157207862453,1.33378495734658,1.31128692626953,-0.376894940215248,6.16375227176064
1.27,1.73080971463815,203.395282345251,204.275702533405,0.0161862866392165,1.08949335989797,1.15325725078583,-0.473943995438629,6.67125294724642
1.28,1.94369915728731,203.279496642599,204.275702533405,-0.0517879224027389,1.23390016574641,1.18573772907257,-0.0431516335822385,5.99550626030483
1.29,2.15659392659249,203.384303963067,204.275702533405,0.00396172977776754,1.15373283375051,1.24768900871277,-0.383020865418608,6.82539991940344
1.3,2.3694973338351,203.262836092338,204.275702533405,-0.0857169740721003,1.24309015190032,1.22653484344482,0.169052514435289,6.15247974499625
1.31,2.58238854043434,203.30501205777,204.275702533405,0.0453020090922697,1.14559190038979,1.19734120368958,-0.626748915151784,6.542159673097
1.32,2.79526202971934,203.352485436067,204.275702533405,-0.00776420153265844,1.10905180350794,1.12745320796967,-0.31238323558661,6.39579119782755
1.33,3.00815923510471,203.340334012015,204.275702533405,0.097583021007857,1.21461880968901,1.22813439369202,-0.943467115261552,6.32920922204909
1.34,3.221019783634,203.360971506087,204.275702533405,-0.0912781492666218,1.18277002153897,1.26488327980042,0.145473400101582,6.79698857538235
1.35,3.4339145844131,203.157248118672,204.275702533405,0.0148230933698608,1.25405782512394,1.27884566783905,-0.459040583846871,6.44417690076201
1.36,3.64678853309877,203.318247068258,204.275702533405,0.121741145418117,1.08285883414125,1.14660596847534,-1.10886104090484,6.69222796386457
1.37,3.85969834636325,203.286978852368,204.275702533405,-0.0771268132036014,1.22116830350126,1.15535151958466,0.120895987624412,5.89531303280237
