t,theta,omega,r,i_d,i_q,i_q_ref,v_d,v_q
0,0,0,234.827578048876,-1.00377198110723e-25,0,0,0,0
0.01,0.0667161222787966,131.300296901555,234.827578048876,0.139580630573309,7.4609942447978,10,-0.97436582844602,19.1002124644491
0.02,0.270429013311883,232.101949401895,234.827578048876,-0.0985867758455394,-1.41712663004606,-2.1361038684845,0.154388263828605,1.91270121024418
0.03,0.514897444487942,233.746409060202,234.827578048876,0.0613104689981747,1.26640569632821,1.39992821216583,-0.822389858122037,7.45523158578757
0.04,0.759537056923181,233.634662804797,234.827578048876,-0.0147768365275835,1.43004809187815,1.52098059654236,-0.350493440124939,7.38138840398809
0.05,1.00418986174539,233.660550164935,234.827578048876,-0.0165667927361554,1.37986549718467,1.40353417396545,-0.365368736931033,7.15689267937041
0.06,1.24886523328474,233.717060045743,234.827578048876,0.0973487826737423,1.40062432820141,1.4754683971405,-1.06739767086126,7.55987416613209
0.07,1.49355274936638,233.639915250114,234.827578048876,0.045253193543619,1.48411568961775,1.54317963123322,-0.771795964627104,7.57187846345369
0.08,1.73827691690301,233.702830706995,234.827578048876,-0.0487971660738888,1.25312705293844,1.26708710193634,-0.230235153781448,7.34949483506105
0.09,1.98298320195384,233.715072036544,234.827578048876,0.0503584538126691,1.39743413999874,1.38601648807526,-0.811554949187657,7.23324304168628
0.1,2.22771464791999,233.652553188229,234.827578048876,-0.0563239403703748,1.43405296452084,1.4066869020462,-0.178754094891178,7.17707870794505
0.11,2.472449848826,233.868603078728,234.827578048876,0.0072215779597646,1.21402902134677,1.30421257019043,-0.567049950419082,7.89883845509696
0.12,2.71716336136617,233.715338455247,234.827578048876,-0.00291646733546547,1.48464560524341,1.43730127811432,-0.51090782064067,7.10833554989454
0.13,2.9619041630013,233.699353623552,234.827578048876,-0.010285289219183,1.35798201263386,1.3717725276947,-0.455499650392038,7.5056374553736
0.14,3.20662439071556,233.755618383116,234.827578048876,-0.00738153365083716,1.39780598918881,1.41769087314606,-0.465560094419428,7.55875716668036
0.15,3.45135853172456,233.666464168079,234.827578048876,-6.25471746303896e-05,1.39255581602911,1.36428928375244,-0.491729477609846,7.28915826751329
0.16,3.69609833414326,233.766920758228,234.827578048876,-0.0827093169483681,1.33644418294857,1.36698365211487,-0.0150507342139269,7.66910219197694
0.17,3.94082848616767,233.76312399168,234.827578048876,-0.00912797633128637,1.27926088802835,1.3241959810257,-0.441780596398072,7.75303535214599
0.18,4.18555746048024,233.554962463309,234.827578048876,0.00476446294779176,1.4328376240344,1.44743847846985,-0.513503236591889,7.59813737511262
0.19,4.43029589839423,233.905497754423,234.827578048876,-0.0162286436569531,1.4120070899979,1.38531982898712,-0.403299251414106,7.36833959164796
0.2,4.67502553760093,233.631149128193,234.827578048876,0.0597298099021112,1.34996759795658,1.3229752779007,-0.87552642136267,7.36788341033698
0.21,4.919756208254,233.726648400414,234.827578048876,0.0172867839611581,1.46076560164051,1.39542877674103,-0.613575169728029,7.18022344234732
0.22,5.16449825387584,233.876319363772,234.827578048876,-0.0346913871320853,1.39062307437465,1.41614437103271,-0.326086821235138,7.71739457445621
0.23,5.40920193232894,233.631747802739,234.827578048876,0.0173236338615168,1.51897206442648,1.60135459899902,-0.614890463222659,8.10855512050884
0.24,5.65395576268722,233.671028207034,234.827578048876,-0.0217077407123883,1.29544044103361,1.25048971176147,-0.383605691798928,7.34943381030402
0.25,5.89869936925775,233.791612681489,234.827578048876,-0.000963435580850991,1.32144141380125,1.34225142002106,-0.504577631088937,7.71686153605411
0.26,6.14345920972656,233.732740152889,234.827578048876,0.0382191961121755,1.45428534232689,1.35524368286133,-0.742922485465179,6.97089638764107
0.27,0.105032986024012,233.736971708453,234.827578048876,-0.0216609944179147,1.33062603233849,1.26663482189178,-0.391889800198609,7.17493372051919
0.28,0.349767465920258,233.800853712429,234.827578048876,0.0549975229207168,1.25660472796956,1.28545367717743,-0.845580734060245,7.72116104636822
0.29,0.594502889696432,233.544590740491,234.827578048876,-0.0378555271105513,1.42395902386001,1.42884004116058,-0.279279398749737,7.59782544727017
0.3,0.839265883481019,233.695662578772,234.827578048876,-0.00622386252285811,1.21551975832611,1.20414626598358,-0.475474434907008,7.4782457579649
0.31,1.08397587654017,233.822365552046,234.827578048876,0.0349694894221804,1.48633804928923,1.49825191497803,-0.705968315906419,7.6488745766268
0.32,1.32874926397142,233.627164332668,234.827578048876,-0.054788739780851,1.42253730525334,1.4213410615921,-0.183334662672244,7.54160089760897
0.33,1.57349512348981,233.785107796248,234.827578048876,0.000256271553245622,1.29774659726953,1.36290335655212,-0.524556568185434,7.93496116177592
0.34,1.81823761326451,233.71081077123,234.827578048876,0.0239029395210248,1.47497333901803,1.41661286354065,-0.652608369738865,7.18128786029334
0.35,2.06298682346009,233.685032320928,234.827578048876,0.0341023542601024,1.33654577525258,1.27723753452301,-0.708839174927736,7.1838999753178
0.36,2.30770499519102,233.746774313952,234.827578048876,0.0319767786815232,1.30154490658947,1.34384191036224,-0.677458261729119,7.81355998186012
0.37,2.55244489660133,233.761904098206,234.827578048876,0.0463229247254207,1.50125523724273,1.42207658290863,-0.745676030080583,7.08690906979446
0.38,2.79719022902307,233.748924249176,234.827578048876,-0.0661700474520824,1.28178387788673,1.25000107288361,-0.0769841361961632,7.38158851794642
0.39,3.04193189549892,233.712059064873,234.827578048876,0.0517331513663862,1.33155899485329,1.31315016746521,-0.781420730848213,7.43799758927738
0.4,3.28666905156234,233.522217608092,234.827578048876,0.0206679430296604,1.41984330034454,1.45497846603394,-0.616502183647855,7.78137227819992
0.41,3.53142515056992,233.750252427257,234.827578048876,-0.0534954404677592,1.17945537245788,1.24415063858032,-0.183671565900181,7.94979244346533
0.42,3.77615215518594,233.814684721454,234.827578048876,0.0806069168422451,1.47193744482559,1.47116208076477,-0.987067281640387,7.55726922231765
0.43,4.02091844997109,233.696860932566,234.827578048876,-0.0068602951322046,1.35980484522053,1.31979513168335,-0.482912527070365,7.30531617123483
0.44,4.26565750576719,233.755576200797,234.827578048876,0.0652716829938647,1.21295332080061,1.26086056232452,-0.926606741630676,7.83139935293429
0.45,4.51041002313125,233.711549443481,234.827578048876,0.00794354339658884,1.43286580218762,1.41063809394836,-0.546624180264999,7.38265267406326
0.46,4.7551619143737,233.777066379492,234.827578048876,0.0186812459597324,1.41024708310507,1.32227778434753,-0.62302635254931,6.99049394741553
0.47,4.99990715541003,233.737829986897,234.827578048876,0.0371746955040839,1.27411059963841,1.38734650611877,-0.751784277687061,8.17469113361309
0.48,5.24465802684223,233.651676893971,234.827578048876,-0.0308904906535784,1.39616241836461,1.37321639060974,-0.331494482001149,7.34934906668976
0.49,5.48939155815984,233.708600936367,234.827578048876,-0.0626983404313399,1.31756007466518,1.33901023864746,-0.139754182927785,7.64207388316052
0.5,5.73412148558995,233.734778024635,234.827578048876,0.070853241910086,1.43796732435269,1.44712221622467,-0.931365704805748,7.56108494131659
0.51,5.97886787481527,233.656083329773,234.827578048876,-0.0285614671954607,1.46300665969476,1.45623016357422,-0.332491157087334,7.47890684642039
0.52,6.22361991898706,233.842471252465,234.827578048876,-0.040363854285787,1.28833089325707,1.29065871238708,-0.285638971380559,7.53086524917663
0.53,0.185167624702181,233.725087204815,234.827578048876,0.0631858276818397,1.43910599890964,1.44481730461121,-0.894114707970528,7.54409588837111
0.54,0.429906494516411,233.676129166396,234.827578048876,0.00655317897969235,1.45457910145317,1.46361351013184,-0.543440577945755,7.59074304323971
0.55,0.67465241378015,233.736282755334,234.827578048876,-0.0484488189145731,1.27642210986391,1.32308650016785,-0.221177071606221,7.80864146231763
0.56,0.919382285124188,233.712863512751,234.827578048876,0.000671869416758536,1.47594708178125,1.41076076030731,-0.481987447451914,7.14734284380345
0.57,1.16413392267573,233.704979873363,234.827578048876,-0.00419995550845459,1.38533151958975,1.31232857704163,-0.451238971176525,7.1090670079172
0.58,1.40887221849,233.652959267124,234.827578048876,0.021307697856937,1.23003062041652,1.31956207752228,-0.61118946870535,8.07322960198125
0.59,1.65362295274539,233.791312077153,234.827578048876,0.0419286907561176,1.51261510296993,1.43532967567444,-0.731442999301067,7.06777276013636
0.6,1.89838451352333,233.664458860817,234.827578048876,-0.0892803723934972,1.18955938903197,1.18261027336121,0.0429644458557262,7.47969336395209
0.61,2.14310048997559,233.739347581809,234.827578048876,0.0334621766613651,1.37089983468945,1.40777003765106,-0.705974011841018,7.76095147221837
0.62,2.38784663110098,233.622468095864,234.827578048876,-0.00275368418722166,1.44153810765626,1.41990399360657,-0.478430317147607,7.40996030659692
0.63,2.63258905540468,233.823092234084,234.827578048876,-0.00310161022717687,1.31212631824513,1.30717670917511,-0.492913812750288,7.51817595768379
0.64,2.87732392033912,233.749280283862,234.827578048876,0.00771115508539344,1.40808732035626,1.43681025505066,-0.545164527139161,7.71141353380369
0.65,3.12205889565255,233.603777695328,234.827578048876,-0.0172143044596386,1.41867921762396,1.41102743148804,-0.396938533577097,7.52359238339731
0.66,3.3668133169118,233.868357010396,234.827578048876,0.012834277538988,1.29435154466173,1.29202222824097,-0.599444743484935,7.53071553960075
0.67,3.61154954712386,233.741983379557,234.827578048876,-0.00620859623407402,1.44929511475895,1.43170511722565,-0.458960727186736,7.44083755797968
0.68,3.85630368442132,233.677554883217,234.827578048876,0.0162835035408734,1.31468900880859,1.23237192630768,-0.616594994472171,7.05877636297011
0.69,4.10103678534877,233.747355883738,234.827578048876,0.0105811174452222,1.24915825812298,1.26842153072357,-0.585866908456586,7.66729056691463
0.7,4.34578050274526,233.751026280607,234.827578048876,0.0248577423471567,1.4986718882481,1.42946791648865,-0.664081198926531,7.13452367594097
0.71,4.59054060873752,233.694141193402,234.827578048876,-0.0911635348686453,1.18203994479563,1.13248598575592,0.0390776400294972,7.2462440024001
0.72,4.83526713208111,233.70037816014,234.827578048876,0.0917551417378086,1.37661215926226,1.36353957653046,-1.05726694243639,7.46165311408732
0.73,5.08001785452041,233.706144634074,234.827578048876,0.00282015936838376,1.43869031144971,1.38556504249573,-0.50999145417157,7.23098703510866
0.74,5.32477117034916,233.831791648582,234.827578048876,-0.0561247975413707,1.30740829285153,1.28796851634979,-0.173177982368082,7.42615238091486
0.75,5.5694991003685,233.72305755123,234.827578048876,0.00869726394205761,1.43683242044691,1.40676212310791,-0.54171728707476,7.36166371596762
0.76,5.81424341279686,233.581021064805,234.827578048876,-0.0548981919347883,1.40093185348785,1.38960599899292,-0.159570721211708,7.48847675105867
0.77,6.0589953044966,233.840976054817,234.827578048876,0.0774677536747653,1.25355821026733,1.30921757221222,-0.987101214554632,7.86412046076427
0.78,0.0205388299718052,233.728624032489,234.827578048876,0.0543928521794715,1.51693405893602,1.50833892822266,-0.831518344723207,7.48838508571179
0.79,0.265301052693541,233.707109632616,234.827578048876,-0.0264893786474272,1.29337105091156,1.24674451351166,-0.362592907157623,7.2522372955539
0.8,0.510034738749827,233.797250554153,234.827578048876,-0.00790945359015804,1.43873780958366,1.43979108333588,-0.460586484678581,7.53023621550643
0.81,0.754773205348958,233.724733182304,234.827578048876,-0.0310564047807267,1.42368135267931,1.40310072898865,-0.32329349093522,7.42020589155725
0.82,0.99952306313444,233.671729846943,234.827578048876,-0.091381008262714,1.24572448833173,1.25331473350525,0.0377732833923804,7.59387065185935
0.83,1.24425235768868,233.693044030498,234.827578048876,0.0760202274679825,1.3989855619781,1.40903162956238,-0.989190559945531,7.60311518152109
0.84,1.48899668263571,233.638215517401,234.827578048876,0.0560401686143857,1.44722606571616,1.41402947902679,-0.867729799149776,7.35905048464835
0.85,1.7337547914674,233.816598079921,234.827578048876,-0.0577168170719994,1.27185993927968,1.27497041225433,-0.193832045940197,7.56195291941115
0.86,1.97849364668856,233.705755122002,234.827578048876,-0.00207968899310107,1.35621335445802,1.37788820266724,-0.521613976173476,7.65947007532362
0.87,2.22325138321439,233.703215657597,234.827578048876,-0.0270922352800564,1.34304896288987,1.30255818367004,-0.366942050959125,7.28510558564321
0.88,2.4679895471709,233.76329270303,234.827578048876,-0.0463932029858375,1.30264511885955,1.38361573219299,-0.252393533471633,8.01180677647194
0.89,2.71272236001095,233.685110209886,234.827578048876,-0.0123897026665099,1.41245357083015,1.38136446475983,-0.440373121203921,7.34583408325403
0.9,2.95747910879481,233.706514791657,234.827578048876,-0.0172930820026174,1.3734725133621,1.3031439781189,-0.420083329915507,7.10807203615472
0.91,3.20220715878165,233.747788508426,234.827578048876,-0.00855419813378294,1.26321662863587,1.30044114589691,-0.470753746821696,7.75714224654535
0.92,3.44696025864061,233.616095443197,234.827578048876,-0.027543774214435,1.45936578500253,1.43386852741241,-0.336765270989375,7.37136846666378
0.93,3.69170869338396,233.769597655172,234.827578048876,-0.0463324679134248,1.34659823664059,1.28789901733398,-0.224066836216473,7.17984873537458
0.94,3.9364414106537,233.712446009513,234.827578048876,0.0584225914369042,1.40327406071009,1.39054572582245,-0.85592944918819,7.44338027537845
0.95,4.18118467157526,233.609216297135,234.827578048876,0.0408089507966954,1.44197298510182,1.43014085292816,-0.744864075280498,7.46653618111585
0.96,4.42593039445704,233.883967381051,234.827578048876,0.00149289775492767,1.35155480204459,1.38785004615784,-0.525686973530152,7.76288437240206
0.97,4.67067509947677,233.747850815377,234.827578048876,0.0367267183500648,1.43199899761148,1.38778924942017,-0.71833369785585,7.25309143768655
0.98,4.91542432261128,233.557777474819,234.827578048876,0.0243382029377346,1.40873190353716,1.43061363697052,-0.647298476732075,7.65901721711506
0.99,5.1601698940876,233.871992157674,234.827578048876,0.106740974895697,1.25251522155896,1.29959416389465,-1.1745686583126,7.80133904248193
1,5.40488269674006,233.660146850856,234.827578048876,0.0720881394412331,1.50832675610869,1.56547093391418,-0.958659864143973,7.89668235609034
1.01,5.64963813593113,233.657816349254,234.827578048876,0.025648250589374,1.29527169527412,1.26087844371796,-0.702596566141633,7.34982684577107
1.02,5.89436549286276,233.736015506419,234.827578048876,0.0742489774626148,1.38006608861897,1.42474782466888,-0.98953359612886,7.82688141800517
1.03,6.13912032174814,233.69146447509,234.827578048876,0.00673320628286123,1.39194287972156,1.32407975196838,-0.580763151507192,7.14091047247733
1.04,0.100678834213713,233.751382489628,234.827578048876,-0.0817119002746601,1.26286910121576,1.25846064090729,-0.0729959642750535,7.53639057203499
1.05,0.345422770665881,233.753685279942,234.827578048876,-0.0294918933114605,1.33437481638125,1.36494648456573,-0.367041311343711,7.71727621459424
1.06,0.590159613995457,233.738748802444,234.827578048876,0.0605247898356278,1.48609145178238,1.45955371856689,-0.902690116073207,7.39937267583759
1.07,0.834889404583102,233.830399338396,234.827578048876,0.0117448135074912,1.31858020651087,1.34858810901642,-0.628540065893177,7.76852297371591
1.08,1.07962794943171,233.715863267101,234.827578048876,-0.00267060012308612,1.3956113906722,1.32655417919159,-0.521271085782966,7.15775864537285
1.09,1.32438015059451,233.699087961433,234.827578048876,-0.0661327540208275,1.41884674356468,1.3499344587326,-0.125762403940329,7.16009477333722
1.1,1.56912304059204,233.820024293104,234.827578048876,0.00554698921954701,1.34991000443515,1.40165662765503,-0.55640953228818,7.86829843511913
1.11,1.81387498222688,233.688878729317,234.827578048876,0.0635439935762806,1.39986197461984,1.37063455581665,-0.87919363716829,7.35699641930946
1.12,2.05862906460697,233.689478165322,234.827578048876,0.0299994432383148,1.33551475600955,1.292933344841,-0.678472547470605,7.27988376296384
1.13,2.30336563276062,233.808923521014,234.827578048876,0.0656049501979095,1.31661913542078,1.3876987695694,-0.900649504801348,7.94974988736839
1.14,2.54811181666129,233.724970476406,234.827578048876,0.0034490957289367,1.42142983082115,1.3990650177002,-0.51465936316665,7.38991672217725
1.15,2.79286996565441,233.735230523215,234.827578048876,-0.0764712682418812,1.25442566942197,1.26391279697418,-0.0570331493788574,7.57298290058621
1.16,3.0376006559752,233.724435029637,234.827578048876,0.0792685701159787,1.39641377809084,1.38358724117279,-1.01763618893614,7.43136544279762
1.17,3.28233951465267,233.636276030231,234.827578048876,0.0412782953131585,1.45651376907646,1.47099041938782,-0.799157853151798,7.61515250422349
1.18,3.52708132157138,233.808943071987,234.827578048876,-0.00149540196833214,1.30758428121515,1.32797932624817,-0.540765342059718,7.65380022376981
1.19,3.77179845027543,233.812656631592,234.827578048876,0.0952073037608059,1.53892497448323,1.49437808990479,-1.10760396569436,7.28587079944879
1.2,4.01656074169809,233.591895274027,234.827578048876,0.00147760971124339,1.43971284139554,1.49034261703491,-0.552247268743485,7.84471682260192
1.21,4.261303447225,233.822065690106,234.827578048876,-0.0205281145327443,1.33250013394448,1.40442144870758,-0.439223351229756,7.96904633623619
1.22,4.5060510992179,233.711395557124,234.827578048876,0.0440882788685897,1.42147199263785,1.39824056625366,-0.794716428609841,7.38496853487961
1.23,4.75080291302896,233.761220772785,234.827578048876,0.0285024733525795,1.35615297480174,1.30473148822784,-0.709835094704536,7.2222362637084
1.24,4.99554706812747,233.738720318794,234.827578048876,-0.0312421020011409,1.27151174877375,1.31054246425629,-0.339748497115059,7.74032452531064
1.25,5.240286057746,233.697587743103,234.827578048876,-0.0279355267886296,1.46519267241727,1.37217843532562,-0.346012938266063,6.96072827279453
1.26,5.48503327168898,233.762800867531,234.827578048876,-0.0998256325336461,1.35203056501066,1.33153605461121,0.0911588744094693,7.3996991727956
1.27,5.72977065802233,233.73338251109,234.827578048876,0.0693443013811293,1.29890209344831,1.36026871204376,-0.925151583068659,7.87392932393357
1.28,5.97450242873726,233.589308875147,234.827578048876,0.00796195112454257,1.42721301190964,1.40790331363678,-0.566839578067834,7.4224382657862
1.29,6.21923844071857,233.867638792516,234.827578048876,-0.00433829305783096,1.33917471889366,1.37137115001678,-0.505338762028101,7.75221371807521
1.3,0.180784939993337,233.774909054814,234.827578048876,0.054486662183143,1.49763622028956,1.44111454486847,-0.859286382188995,7.21678300906737
1.31,0.425551802489395,233.63643374284,234.827578048876,-0.0526091910004414,1.32955056433998,1.2947610616684,-0.21226879908892,7.33345952619293
1.32,0.670284787000746,233.811337120439,234.827578048876,-0.0231512011530129,1.38505875433211,1.44413208961487,-0.410690089392382,7.89803979542995
1.33,0.915033889544574,233.733521929111,234.827578048876,0.0659411828711518,1.43288975418092,1.42160129547119,-0.916885121650302,7.46216115642358
1.34,1.15977818643733,233.692730828247,234.827578048876,-0.0662070605595486,1.34541882206771,1.27237987518311,-0.109257435181097,7.10980503698335
1.35,1.40451514805603,233.769927696473,234.827578048876,-0.01205619847306,1.37724676644824,1.43098735809326,-0.452379936258164,7.85487808218044
1.36,1.64925466341801,233.682532114601,234.827578048876,0.042521522435973,1.4617463405488,1.38411200046539,-0.771112650531894,7.07568327129032
1.37,1.89400572179226,233.704267034291,234.827578048876,-0.111323130209652,1.25392031107934,1.3038592338562,0.136557209647116,7.84864922977375
