t,theta,omega,r,i_d,i_q,i_q_ref,v_d,v_q
0,0,0,210.74915482315,-1.00541205571695e-24,0,0,0,0
0.01,0.0646622350618116,127.120372774783,210.74915482315,0.172880343077428,7.49835387177609,10,-1.13510257197435,18.9068267794182
0.02,0.257178748566212,210.216295452178,210.74915482315,0.0404039740084566,3.3751176592427,4.27142095565796,-0.55616344181095,11.6381441106857
0.03,0.476833053361939,209.618044867019,210.74915482315,0.0675647732029773,1.30717873071649,1.40196371078491,-0.721791095012441,6.80485919787108
0.04,0.696437902080645,209.784487501143,210.74915482315,-0.0673471336561185,1.2566257470916,1.26692402362823,0.0798134891994606,6.36241369336338
0.05,0.916035029271022,209.686322104148,210.74915482315,0.0674723681746546,1.29647208765597,1.27228271961212,-0.724085494446041,6.18952192674907
0.06,1.1356576925376,209.807311527679,210.74915482315,-0.0753886496940086,1.15770082698482,1.17597281932831,0.1131370386616,6.46975911824131
0.07,1.35525504169677,209.606954021775,210.74915482315,0.106147012854644,1.28424443287409,1.34013509750366,-0.971799510107827,6.73721185903679
0.08,1.57485141576557,209.806520907794,210.74915482315,-0.0285470954276459,1.22808675529038,1.27611911296844,-0.189352155599498,6.75119952244239
0.09,1.79447107770053,209.641273591388,210.74915482315,-0.011347706621518,1.24668224333094,1.18466436862946,-0.264450826747409,6.10523547920427
0.1,2.01408508139574,209.812552914341,210.74915482315,0.0290721359077347,1.12884550224675,1.17186629772186,-0.519780824253005,6.75606584885047
0.11,2.23371417591151,209.698286861564,210.74915482315,0.0543220921134589,1.28397437151005,1.25387167930603,-0.684874429343233,6.32164017597445
0.12,2.45331334685147,209.722750817977,210.74915482315,0.0639656898322209,1.09931944961197,1.15796828269958,-0.754329394715753,6.89041968534093
0.13,2.67293823240229,209.72355841541,210.74915482315,-0.052877261394736,1.27973577351255,1.28145849704742,-0.0367593278158859,6.56915137385426
0.14,2.89255519639861,209.776495366221,210.74915482315,-0.0424182067166411,1.17734861600796,1.18480980396271,-0.105099533121202,6.59990560505604
0.15,3.11220240914231,209.788351496898,210.74915482315,-0.0135064628947263,1.2738284724573,1.19664978981018,-0.273234831242128,6.08733501017248
0.16,3.33181475041724,209.777363226879,210.74915482315,0.0620325089168822,1.34728514256003,1.34714937210083,-0.722217185074215,6.55051796351078
0.17,3.55146282444465,209.732972874588,210.74915482315,-0.00645021093221221,1.16910286668291,1.11866092681885,-0.320192278358666,6.24536050586126
0.18,3.77106504729878,209.664323647776,210.74915482315,0.0905817366559399,1.30889091741207,1.37410378456116,-0.905196862925816,6.95696838096854
0.19,3.99071689136831,209.879361120102,210.74915482315,-0.00342904995220461,1.28087002598873,1.20880258083344,-0.349507988280629,6.11662039738167
0.2,4.21033575121601,209.65510550428,210.74915482315,-0.0188320107131356,1.31208068548717,1.33466398715973,-0.238211593284384,6.68017433904512
0.21,4.42997871286563,209.810721047167,210.74915482315,-0.0220382120704787,1.08843578233125,1.09375500679016,-0.23751113381113,6.57121201649292
0.22,4.64959549851687,209.697609536332,210.74915482315,0.0995591329629027,1.32737108780047,1.37875890731812,-0.948702758807253,6.84950565343146
0.23,4.8692372881418,209.867237678916,210.74915482315,-0.0107002755185592,1.23265027981622,1.23746347427368,-0.296815238993919,6.55928990316589
0.24,5.08883865871289,209.698388062448,210.74915482315,0.03013568410856,1.32922398829621,1.38367235660553,-0.545048972994149,6.89775755360237
0.25,5.30847263636971,209.831891532017,210.74915482315,0.0631022336438922,1.15694703168629,1.2181681394577,-0.75538605069488,6.93413063150609
0.26,5.52811735521487,209.658920672669,210.74915482315,-0.0283130546615213,1.2738132025215,1.26589214801788,-0.195191941067531,6.4960869412365
0.27,5.7477432974092,209.744552434008,210.74915482315,0.11314665523068,1.08562961844543,1.14004361629486,-1.06154172803019,6.86541631166339
0.28,5.96737379617365,209.676188747625,210.74915482315,-0.0422376548163782,1.25887671699933,1.22699451446533,-0.124053931782559,6.35451484217194
0.29,6.18697925691575,209.859284869144,210.74915482315,0.00878292611768394,1.27850813631874,1.33169603347778,-0.43585245137236,6.88586095550261
0.3,0.123442267455707,209.751926286944,210.74915482315,-0.0249110839649164,1.27067465823701,1.22513318061829,-0.207414743767053,6.28221218713636
0.31,0.343072698324744,209.779478241394,210.74915482315,0.0995565857807403,1.32933376111673,1.31506502628326,-0.947812001415581,6.43767937557491
0.32,0.562710160112273,209.756066329629,210.74915482315,-0.00720215168627247,1.23554922463568,1.1657977104187,-0.292671531820208,6.11282050117578
0.33,0.782318217168799,209.860195090407,210.74915482315,0.0771513675994219,1.35587014778344,1.30100882053375,-0.80150327927951,6.21104010781676
0.34,1.00197236549045,209.785293535413,210.74915482315,-0.0706190178145044,1.0762967055905,1.0782790184021,0.0641443413010944,6.53185697969814
0.35,1.22158426042994,209.703975246861,210.74915482315,0.0659866566657935,1.31934293271585,1.33448958396912,-0.75858984116674,6.60900187016715
0.36,1.44121575519596,209.829775484912,210.74915482315,-0.0440739104615623,1.20123903871747,1.20024013519287,-0.120449912849294,6.52874498801015
0.37,1.66084040861088,209.676168351573,210.74915482315,0.0733894555083269,1.29199313320794,1.27946758270264,-0.823424617406429,6.44924207271727
0.38,1.88047122785918,209.804175008738,210.74915482315,-0.0104058909971612,1.20424529308499,1.20892488956451,-0.312699898170394,6.55923632476609
0.39,2.10011142752293,209.697290856284,210.74915482315,-0.0586951459569399,1.29234536085178,1.23702442646027,-0.00758478394837292,6.16874562136198
0.4,2.31972771609507,209.839632810573,210.74915482315,0.0117231208824063,1.27933189191795,1.34752953052521,-0.456374573235355,6.92874668272225
0.41,2.53933297552474,209.608966202139,210.74915482315,0.0449844223547998,1.28064691200504,1.35171401500702,-0.65211916324813,6.9917713124939
0.42,2.75896235731092,209.758986141495,210.74915482315,0.0326127910616418,1.1878547927615,1.17753779888153,-0.601864670103517,6.4964288436156
0.43,2.97860427704101,209.696370376745,210.74915482315,0.0065020762182178,1.27397562456482,1.23700511455536,-0.431496751718896,6.31947740336997
0.44,3.19822102291931,209.795887570757,210.74915482315,-0.0246164506104519,1.19541717005315,1.26494681835175,-0.232513645189788,6.96169902877712
0.45,3.41787046260185,209.721563228168,210.74915482315,0.0213253611108152,1.26154669514664,1.18692886829376,-0.528945269944412,6.08600201291467
0.46,3.63748282020434,209.749489374383,210.74915482315,0.0791425601465408,1.1302165995682,1.16773986816406,-0.87497414661382,6.76790715265121
0.47,3.85712916736557,209.803097986599,210.74915482315,-0.076512074690344,1.25761895751768,1.18576741218567,0.0459882231969158,6.10857431056062
0.48,4.0767496794935,209.798052129127,210.74915482315,0.101439926928442,1.3296918566327,1.3025506734848,-1.02056528419357,6.3660991911688
0.49,4.29639483270197,209.731021343767,210.74915482315,-0.0772004459042186,1.11264918595154,1.14553725719452,0.068136843723065,6.72191051749738
0.5,4.51600790596541,209.805295667674,210.74915482315,-0.0128158928266795,1.35231439849587,1.27934813499451,-0.310509741651008,6.08580437224271
0.51,4.73564353082742,209.845542011852,210.74915482315,-0.0371343010763434,1.26486317847101,1.21061193943024,-0.161117243443753,6.21110243598121
0.52,4.95526400899361,209.766963837393,210.74915482315,-0.00380010746997422,1.33213002779764,1.28685855865479,-0.358788380378103,6.25738515939939
0.53,5.17489822434251,209.785314618668,210.74915482315,0.00167400428110917,1.1186129166515,1.08761513233185,-0.395056067012655,6.35052417031481
0.54,5.39451687360107,209.704859552794,210.74915482315,-0.0401013620067989,1.33255869008948,1.36313414573669,-0.127043989595604,6.7267787795705
0.55,5.61413661748679,209.86694589896,210.74915482315,-0.0328342618070176,1.21890376513135,1.21481561660767,-0.17315289385865,6.53962163800356
0.56,5.83374806877138,209.671683895927,210.74915482315,-0.0182635220287148,1.42278831891391,1.41118121147156,-0.251589096496178,6.51579920378867
0.57,6.05338467796918,209.791462654535,210.74915482315,0.00320742409265292,1.14557619488196,1.15735483169556,-0.412527855572806,6.64310551335756
0.58,6.2730125672369,209.608963356515,210.74915482315,-0.0172663459745269,1.2586141601318,1.27257966995239,-0.28725157494175,6.66245473073476
0.59,0.20947251702327,209.852339115436,210.74915482315,-0.00973987677937539,1.1870212164305,1.20334649085999,-0.33230991956323,6.63357276861132
0.6,0.42910659069169,209.614292213058,210.74915482315,0.0396594723663442,1.33733133957645,1.37419331073761,-0.612478137485784,6.75819737890264
0.61,0.648739308129191,209.828301655481,210.74915482315,0.112655390490233,1.22895083919282,1.30145990848541,-1.0353462225219,6.9436305115159
0.62,0.868373646806848,209.734938708707,210.74915482315,-0.0194853729310942,1.27696506482919,1.30756378173828,-0.243247283487984,6.70255831165751
0.63,1.08796854563702,209.768865363784,210.74915482315,0.108608431748167,1.32357621818309,1.33308911323547,-1.02001245370533,6.60259064050197
0.64,1.3076115633511,209.738729321135,210.74915482315,-0.00340447956579099,1.19468438208458,1.13714277744293,-0.346773626396665,6.20787876991828
0.65,1.52721796287631,209.662931215493,210.74915482315,-0.0264274965556952,1.33483293891139,1.38217484951019,-0.196400919596382,6.850940058414
0.66,1.74685504084325,209.751993531661,210.74915482315,-0.103659963010488,1.22406248680574,1.24973201751709,0.242201020639055,6.72821464294261
0.67,1.96647189085152,209.707169589087,210.74915482315,0.0468971239619113,1.34454739458696,1.40533530712128,-0.64245524816912,6.93701814458106
0.68,2.18612453573718,209.815620024262,210.74915482315,-0.0646910996072614,1.17348799577323,1.15566408634186,0.015243392817855,6.44429313002576
0.69,2.405740781918,209.623060457581,210.74915482315,-0.00824606548267015,1.29604749238201,1.33628928661346,-0.321674571358256,6.79856019318382
0.7,2.62535449153351,209.741462865363,210.74915482315,-0.0885205510188637,1.03017553247466,1.01846289634705,0.157428798618614,6.52692230260141
0.71,2.84497429554107,209.64635258281,210.74915482315,0.0372353194328644,1.28611653857601,1.29660153388977,-0.572128652977181,6.66456705714206
0.72,3.06459798253566,209.7517411537,210.74915482315,0.00772791950865603,1.07641194003549,1.16142618656158,-0.41293100483283,7.11672084322572
0.73,3.28423189761921,209.64601020329,210.74915482315,-0.0481481103959303,1.27046455702606,1.27766716480255,-0.0648836015377741,6.63939287153529
0.74,3.50386145110234,209.776646175607,210.74915482315,0.0553200894017389,1.14288814225317,1.18659639358521,-0.695437373804681,6.84582160523302
0.75,3.72352087244862,209.758521352151,210.74915482315,-0.0225373499873665,1.28020153052689,1.1843444108963,-0.208671350101928,5.97680945988663
0.76,3.94315517750675,209.813866536224,210.74915482315,0.103102160150167,1.28061811782486,1.28954243659973,-0.952567762400018,6.57687472273008
0.77,4.16278220997363,209.792019772526,210.74915482315,-0.000636971641264528,1.28779709281129,1.23665940761566,-0.333030114414511,6.24032016487888
0.78,4.38241447211263,209.734878642306,210.74915482315,0.109575241938977,1.21995334856357,1.18860924243927,-0.997429070919954,6.32634634632541
0.79,4.60205559012657,209.704463871644,210.74915482315,-0.0753978757854129,1.21250259227357,1.14055907726288,0.117317572688068,6.08858870432389
0.8,4.82166256324183,209.727999428129,210.74915482315,0.0428911351075101,1.33703428489099,1.3454384803772,-0.598677333279777,6.58550475022196
0.81,5.04131995664596,209.782900506238,210.74915482315,-0.0211595504314452,1.17450555452856,1.13982665538788,-0.245099035172572,6.30809267184608
0.82,5.26092284659248,209.710920709733,210.74915482315,0.0440943016805535,1.31144709033523,1.28623878955841,-0.631301596717453,6.38250407228783
0.83,5.4805687552631,209.740589709021,210.74915482315,-0.103947366089968,1.13898497903908,1.12373781204224,0.249823294835032,6.44185824492146
0.84,5.70017175854347,209.611617368506,210.74915482315,0.0215000551955586,1.29739767249073,1.35598790645599,-0.512645213524938,6.90859565019506
0.85,5.9197965046138,209.848860179638,210.74915482315,0.047862707212082,1.14041648218223,1.17183017730713,-0.702551590550351,6.76579534163657
0.86,6.13943201506024,209.704305143096,210.74915482315,0.0654351292610021,1.28760774440783,1.22797787189484,-0.798521618444019,6.19738209134439
0.87,0.0758818165498383,209.798720001981,210.74915482315,-0.0173398947837168,1.25545190185982,1.32497823238373,-0.298642741875599,6.96303167324142
0.88,0.295527793172781,209.661008541626,210.74915482315,-0.0434445810241127,1.27789595112023,1.25752913951874,-0.124728769167711,6.39494864991195
0.89,0.515126566290711,209.835106825603,210.74915482315,0.0685868436884787,1.18928939834591,1.22634863853455,-0.792914568060799,6.78405396055863
0.9,0.734774915995516,209.67516037803,210.74915482315,0.0304691497733119,1.27225289638013,1.23446226119995,-0.539415841337243,6.30957721956409
0.91,0.954383361821083,209.734906132442,210.74915482315,0.0526934775291854,1.15125939479853,1.23896276950836,-0.689032874209264,7.07973060771037
0.92,1.17400959062011,209.630683477985,210.74915482315,0.0102728993677579,1.25086742739978,1.26279437541962,-0.43272740146475,6.64751147464451
0.93,1.39362234358309,209.8300320456,210.74915482315,0.0351539555921053,1.30211171320272,1.26555597782135,-0.5685267894668,6.36738243029503
0.94,1.61326619194092,209.818430108504,210.74915482315,-0.0498122001228937,1.27558476544361,1.21432161331177,-0.0658749208182076,6.2203339956597
0.95,1.83288148939555,209.791671914894,210.74915482315,0.0703088247997179,1.33735421009279,1.29944336414337,-0.764604780849116,6.35646523182286
0.96,2.05252149939641,209.847124192094,210.74915482315,-0.047330699687797,1.26514379657072,1.20774018764496,-0.0628252160324345,6.24680774492238
0.97,2.27214167648028,209.712397579331,210.74915482315,0.0798411284451248,1.31819886265593,1.3340984582901,-0.829178882526168,6.67252092234958
0.98,2.49178779326015,209.758463869849,210.74915482315,-0.061485992995079,1.22295209938904,1.18654751777649,0.00892660879464646,6.35234833717931
0.99,2.71142097958374,209.718025433585,210.74915482315,0.0516228392574299,1.341490198924,1.38593924045563,-0.669172050439796,6.81157748466418
1,2.93106054707215,209.866831016029,210.74915482315,-0.0918819926928521,1.22360132592842,1.2207510471344,0.190441946503885,6.52758872253408
1.01,3.1506769001343,209.656673213709,210.74915482315,0.0334559794284757,1.28921437750296,1.28663206100464,-0.54667133590564,6.53322097739164
1.02,3.3703017878731,209.768563261896,210.74915482315,-0.010677058660287,1.08116145463358,1.17117166519165,-0.305076210041781,7.0992205071992
1.03,3.58995266483312,209.638294252342,210.74915482315,0.0123935154877159,1.27237186368923,1.25631582736969,-0.431902316897111,6.41764906160647
1.04,3.80957581271379,209.795416454021,210.74915482315,0.0327921007979492,1.16005937552791,1.22129619121552,-0.582485597144417,6.88345186364158
1.05,4.02920144451632,209.621634330011,210.74915482315,-0.0171841553772505,1.26702488453841,1.3060564994812,-0.272871001133566,6.75900404319849
1.06,4.24882581664183,209.821422309139,210.74915482315,-0.0134822914465227,1.28667781872005,1.2753050327301,-0.314533786117122,6.44811434610099
1.07,4.46847477628237,209.654205837473,210.74915482315,-0.08055031537816,1.27040147283018,1.30789852142334,0.0979730457678923,6.72332570611933
1.08,4.6880848542449,209.720450288484,210.74915482315,-0.0203002175756829,1.09498275002116,1.14474296569824,-0.261367880138507,6.81087953419571
1.09,4.90772142280621,209.658152499452,210.74915482315,-0.00405313676169269,1.24352535769284,1.22920966148376,-0.36460682423852,6.43679310824594
1.1,5.12733258793056,209.805591753674,210.74915482315,0.0697473642478659,1.34600243565051,1.31252491474152,-0.805140656098076,6.32831172087009
1.11,5.34698260683225,209.642688431036,210.74915482315,-0.0741064901775514,1.2235628505661,1.26878798007965,0.062337537438059,6.78466133577897
1.12,5.56658784474172,209.726017902267,210.74915482315,0.0378096015040135,1.33273104669172,1.34437990188599,-0.593774758415082,6.60459408913445
1.13,5.78622881788292,209.772924824493,210.74915482315,-0.0816010512570109,1.12453720801942,1.1581894159317,0.144069712544888,6.7367134411732
1.14,6.005829471418,209.722537899149,210.74915482315,0.0187369523772558,1.35030083961175,1.39403033256531,-0.462563987152009,6.82044311941612
1.15,6.2254697438527,209.81585646219,210.74915482315,-0.101340159065551,1.21033826895914,1.20612359046936,0.256188799962105,6.53411594472034
1.16,0.161892309906413,209.709922565573,210.74915482315,0.0701064222214896,1.39280164572355,1.45402359962463,-0.749349183282737,6.94846497629908
1.17,0.381540024744108,209.787985657226,210.74915482315,-0.0125118276224381,1.09113047663563,1.14502680301666,-0.284689768448395,6.88655275148932
1.18,0.601152036578583,209.707807979351,210.74915482315,-0.0310275659416013,1.47157951023031,1.47483551502228,-0.173812162109813,6.59895983392951
1.19,0.820791800139659,209.753878880433,210.74915482315,0.0448599932235764,1.10073386833374,1.16775822639465,-0.662293340315581,6.9626374100718
1.2,1.04042741205536,209.705391985074,210.74915482315,-0.020705041209329,1.27206380884817,1.20175206661224,-0.253221537202208,6.12744144925859
1.21,1.2600576819777,209.775728265525,210.74915482315,0.0942092370210382,1.09521282327621,1.14620423316956,-0.959121782812859,6.84492990284096
1.22,1.47969565698598,209.608051128437,210.74915482315,-0.0308335262437781,1.24292934211911,1.24735987186432,-0.175956983066339,6.56103217192278
1.23,1.69932734571418,209.844781564658,210.74915482315,-0.046825067469753,1.22727065921942,1.27078485488892,-0.0678779218388539,6.77324969642091
1.24,1.91895604028806,209.709663658539,210.74915482315,0.0111303025966979,1.24548427178614,1.15326941013336,-0.403412629695557,5.9792340477691
1.25,2.1385630951064,209.805298881132,210.74915482315,0.0119443932795412,1.36149231458595,1.32511007785797,-0.419570588645247,6.32827205880602
1.26,2.35821635781542,209.761105163395,210.74915482315,-0.0542834994774806,1.25009468151985,1.18072056770325,-0.0264611354122732,6.11776616551535
1.27,2.5778346416213,209.691693087239,210.74915482315,0.0413376038491601,1.32507475918892,1.37527966499329,-0.581161108068008,6.82547922534153
1.28,2.79746538399251,209.712311097139,210.74915482315,-0.0144015841240854,1.18924474314199,1.14706230163574,-0.254348017179696,6.2936774570981
1.29,3.01708127433855,209.64061150968,210.74915482315,0.0612390385634342,1.30358972049183,1.34986400604248,-0.711186328367108,6.82180657831111
1.3,3.23672946896603,209.826937053992,210.74915482315,-0.113465916701053,1.13623114071696,1.13528692722321,0.332267197317108,6.52908646556101
1.31,3.45634513141481,209.633331942296,210.74915482315,0.0808304787525966,1.29128979980954,1.33282673358917,-0.846746292811309,6.78616154329397
1.32,3.67596016192672,209.946426530637,210.74915482315,0.00531739861735558,1.31955805987599,1.29629397392273,-0.40757179574489,6.43270290047709
1.33,3.89559024671675,209.691574871802,210.74915482315,-0.0155768215443534,1.32663795868473,1.37222445011139,-0.280395689564114,6.83674330821156
1.34,4.11525561882643,209.894142896842,210.74915482315,0.0509729821017305,1.17340682699011,1.21539187431335,-0.700467210101554,6.75899222223518
1.35,4.33487486940134,209.743245009096,210.74915482315,-0.0310647786318878,1.28540117274535,1.20062899589539,-0.205049700008938,6.01514991552659
1.36,4.55450601889848,209.824489051368,210.74915482315,0.0401050500806164,1.19361958233727,1.25185370445251,-0.637490748420439,6.85920895201822
1.37,4.77413095049077,209.608733815499,210.74915482315,-0.0414976590471688,1.24349530468769,1.24266886711121,-0.134969336839791,6.52675794328496
1.38,4.99374827698462,209.807017908327,210.74915482315,-0.0141127786672534,1.18314406444871,1.20642971992493,-0.303848200855166,6.67542877431969
