t,theta,omega,r,i_d,i_q,i_q_ref,v_d,v_q
0,0,0,279.347319399819,-2.82001544722426e-24,0,0,0,0
0.01,0.0634900832168769,124.913435253769,279.347319399819,0.15095664432925,7.47099477950513,10,-1.05518505677093,19.0489586195817
0.02,0.260368762491194,248.467336911361,279.347319399819,0.255492804900375,7.66061875625982,10,-2.00526110734463,21.3875814097741
0.03,0.547470637738683,278.116314379859,279.347319399819,-0.0479750261580898,1.82195250812933,2.00501346588135,-0.368127684220058,9.3134747010079
0.04,0.838487031499848,277.966902231233,279.347319399819,-0.144718475641973,1.58471821947699,1.76442325115204,0.18989568746954,9.45058633582282
0.05,1.12950267786543,278.040336141888,279.347319399819,-0.0644933014662462,1.59257815111397,1.79830694198608,-0.314133128197967,9.75795955419014
0.06,1.42054545041309,278.009072411924,279.347319399819,-0.0192544638322916,1.56983503995131,1.73095095157623,-0.580751971988862,9.59484733986325
0.07,1.71159033295279,278.055509645487,279.347319399819,0.0807449978924745,1.53338303239824,1.70961904525757,-1.16266358485884,9.78285466064839
0.08,2.0026539817389,277.97626782215,279.347319399819,0.0112056195040356,1.63749569858583,1.71938371658325,-0.727340693162152,9.28052162426263
0.09,2.29372623971718,278.03765063399,279.347319399819,0.0316103775235352,1.64896607346389,1.71286606788635,-0.830672729252757,9.22456066689965
0.1,2.58481253516856,278.034083846539,279.347319399819,0.0335634900094777,1.74335021245895,1.83870732784271,-0.850140896216191,9.44443751209603
0.11,2.8758980131087,277.976030358562,279.347319399819,0.0384095695290976,1.77593091194526,1.75762045383453,-0.881511003539689,8.79531652144132
0.12,3.16699046840967,277.99124599921,279.347319399819,0.0862594376064641,1.78442301660732,1.77996373176575,-1.17901368661165,8.89965345021352
0.13,3.4580776325808,277.944489586141,279.347319399819,0.0230111934061931,1.82062963572505,1.86533617973328,-0.821515828688849,9.2235195569756
0.14,3.74918612447103,277.930355375475,279.347319399819,0.0394771147459201,1.80212894635964,1.78077137470245,-0.922966431849238,8.82507813878846
0.15,4.04028545699971,277.927793917149,279.347319399819,-0.00818750830738994,1.73866747905809,1.7220870256424,-0.615851314311463,8.87048830338384
0.16,4.33138145128852,277.915433707083,279.347319399819,0.0913830739101323,1.72729817517769,1.72225368022919,-1.22541925584341,8.96037072462046
0.17,4.62247760813646,277.849930397439,279.347319399819,-0.000473437724431092,1.6463405133223,1.59891390800476,-0.649222289960383,8.71826941449436
0.18,4.91357996189065,277.941242236446,279.347319399819,-0.0334794043868566,1.5420984192932,1.54397821426392,-0.457809144400425,9.01687201415915
0.19,5.20468168485389,277.997365051883,279.347319399819,-0.0271179701998612,1.5413232067734,1.55277168750763,-0.507958555687379,9.07950879362712
0.2,5.49578396609398,278.00333988372,279.347319399819,-0.00551662508141093,1.63791141794645,1.56901741027832,-0.634234861190093,8.59853102645903
0.21,5.78688511565552,277.95475301317,279.347319399819,-0.00506401740363088,1.56801428025472,1.56796479225159,-0.639053595538204,9.01577291082788
0.22,6.07798887932923,278.105821291154,279.347319399819,0.00670321216347575,1.61173231383876,1.63048315048218,-0.708966538115996,9.1301555365805
0.23,0.0859157728376436,278.100091149099,279.347319399819,-0.0542735026339297,1.63039334169848,1.69458222389221,-0.358610447522864,9.38987333787193
0.24,0.377005096241148,278.066604703296,279.347319399819,0.0321420834427487,1.66249197800128,1.71459949016571,-0.876621306208747,9.33476999556316
0.25,0.668112907806422,278.03652280045,279.347319399819,0.0601954907137821,1.64143142835848,1.71158194541931,-1.04071895219239,9.42626674515411
0.26,0.959210046149584,278.053883565115,279.347319399819,0.0668546906783968,1.65493047224637,1.74636852741241,-1.08190899386733,9.55882246654168
0.27,1.25031150121377,278.001172295534,279.347319399819,0.0614567238727041,1.59442774489297,1.64902174472809,-1.02788812353494,9.33882305247681
0.28,1.54141345204999,278.015293734765,279.347319399819,-0.0130599530831799,1.73141304028504,1.71384370326996,-0.578172048946184,8.90249814245384
0.29,1.83252435861784,278.06882503695,279.347319399819,0.0148536472298781,1.74163189721454,1.77986240386963,-0.737158375589368,9.22815180822398
0.3,2.12363065292922,278.043194827499,279.347319399819,0.0481606699247785,1.81520176007333,1.77689003944397,-0.935832839533538,8.76577123513031
0.31,2.41473385299491,277.985955540248,279.347319399819,0.00357633334410057,1.8007109744868,1.78785133361816,-0.685347828911463,8.92262013206109
0.32,2.70583755652154,277.941389868849,279.347319399819,0.0392111164122895,1.80258936151478,1.82439923286438,-0.875995740727786,9.12755949092753
0.33,2.99694614310097,277.886052583086,279.347319399819,0.00165860268061502,1.71092346022735,1.67305660247803,-0.660805234994175,8.76428736716489
0.34,3.28805261953909,277.892884694267,279.347319399819,-0.058844575677013,1.73805712643317,1.72414803504944,-0.318450362916868,8.90984561219946
0.35,3.5791584839387,277.900288738363,279.347319399819,-0.0242492749977342,1.70347406501409,1.7138135433197,-0.518510513799933,9.05777937478679
0.36,3.87026393533238,277.908057091487,279.347319399819,-0.099951855511779,1.66359415748168,1.65013813972473,-0.0801281316905427,8.91988706141021
0.37,4.16135825711434,277.950385084101,279.347319399819,-0.00368030558739096,1.66973075330791,1.654256939888,-0.658736828432934,8.92361936445862
0.38,4.45246793335817,278.02462107545,279.347319399819,-0.0262511041160178,1.53787031363155,1.56153988838196,-0.513669126114347,9.15383789494371
0.39,4.74357117723818,278.068576637322,279.347319399819,-0.0772471350460136,1.61157046830752,1.58912229537964,-0.21653023724174,8.88412067891837
0.4,5.03467928749676,278.069069179149,279.347319399819,-0.00166468235465822,1.60464370878193,1.6397168636322,-0.688375184217316,9.22088834075648
0.41,5.32578640538335,278.1235543996,279.347319399819,-0.0484811842697459,1.5453166664244,1.57098281383514,-0.410691096040192,9.15475010853606
0.42,5.61687871316316,278.045040880678,279.347319399819,-0.00994349228158729,1.53531917524431,1.66098475456238,-0.641161629753677,9.75743297516381
0.43,5.90798306937192,278.065815642216,279.347319399819,0.118483649381519,1.58193827284266,1.66237080097198,-1.38857125755595,9.47618181091431
0.44,6.19908686847052,278.063907564803,279.347319399819,0.087763463490752,1.52088029499638,1.64072239398956,-1.19250737588382,9.71199562178563
0.45,0.207001175464381,277.985241778383,279.347319399819,0.077742278325327,1.56357539006723,1.67758655548096,-1.13321526234669,9.68132512991911
0.46,0.498103299033826,277.967534444549,279.347319399819,-0.00175490725757887,1.58617769502441,1.67443358898163,-0.653630092198891,9.53271045860289
0.47,0.789204594781179,278.028569474565,279.347319399819,0.0146377604516401,1.71439140570203,1.74794983863831,-0.753896340244479,9.20961146555949
0.48,1.0803021511988,278.001763519123,279.347319399819,0.0123037820619253,1.7472184028464,1.72779190540314,-0.75117602304371,8.90328178348568
0.49,1.37141012262803,277.932291606107,279.347319399819,0.0633536060358093,1.75262706441692,1.72701013088226,-1.0588384892996,8.858325179317
0.5,1.66251337281526,277.906940045889,279.347319399819,0.0499612307746238,1.73703899338973,1.71032989025116,-0.984583092612433,8.85645375678443
0.51,1.95361102062212,277.919967341831,279.347319399819,0.0682164868352364,1.77738695203848,1.77205789089203,-1.09732480738611,8.99692627851764
0.52,2.24472493051899,277.949992748603,279.347319399819,0.0713138578628467,1.78146671525557,1.72292590141296,-1.11961633311124,8.66184029202312
0.53,2.5358268206748,277.939636727469,279.347319399819,0.0349897166051111,1.78298375210736,1.75285696983337,-0.879585782510249,8.83622413330567
0.54,2.82694296109965,277.921286482185,279.347319399819,-0.0470808117788847,1.79322832113871,1.71684563159943,-0.379834135344118,8.54675701576867
0.55,3.11805388045043,277.869351451828,279.347319399819,-0.0494692116095867,1.52853370030984,1.46085333824158,-0.376232620434395,8.59868380140302
0.56,3.40915098111315,277.915516814418,279.347319399819,-0.0572900949612286,1.57042950765513,1.5295821428299,-0.3282660264573,8.77725532024575
0.57,3.70025857422642,277.946467554292,279.347319399819,-0.0237325650973075,1.58226245667744,1.57848298549652,-0.529334208144446,8.99859589814265
0.58,3.99135882932519,278.11649443583,279.347319399819,0.00552993972427007,1.68224606137034,1.65825486183167,-0.714179822157138,8.88522935084523
0.59,4.28246296829358,278.116759472218,279.347319399819,0.020900702628151,1.63158222272576,1.67919790744781,-0.820654223271099,9.31383493962977
0.6,4.57357441739916,278.137247986479,279.347319399819,-0.0364446987792757,1.52353518592146,1.63311469554901,-0.48465961992608,9.67110735565401
0.61,4.86466573968153,278.11395364704,279.347319399819,0.0198622624037366,1.56887349031503,1.62932932376862,-0.822783189662226,9.38863097926674
0.62,5.1557772441683,278.142622615582,279.347319399819,0.0443133144737501,1.56094384620825,1.64047145843506,-0.956274576593554,9.48578494496212
0.63,5.4468774355425,278.022994878189,279.347319399819,0.0714086931459836,1.5974669011982,1.67760646343231,-1.10645211711383,9.48947314779513
0.64,5.73797227329922,278.034422648867,279.347319399819,0.0950359916726996,1.65295566349098,1.76982140541077,-1.24614296626788,9.71935959319293
0.65,6.02907302846115,278.006114510967,279.347319399819,0.0908850086972395,1.63647806900661,1.71513414382935,-1.21763015526694,9.49490578996754
0.66,0.0369915121073419,277.98698443439,279.347319399819,0.0152938774522376,1.685411794526,1.71706223487854,-0.772221269967681,9.21184417331586
0.67,0.328097963047369,278.010674263422,279.347319399819,-0.00212773128279364,1.87145624831439,1.8330796957016,-0.673207922318822,8.78902724767237
0.68,0.619205845629601,277.943546214291,279.347319399819,0.0125213953382953,1.79367404624956,1.81985473632812,-0.759790594633504,9.17298570037162
0.69,0.910309915344534,277.950404862378,279.347319399819,0.00210647544070666,1.8991656579988,1.83716189861298,-0.710673445535875,8.64492576043253
0.7,1.20141734263535,277.903710334103,279.347319399819,0.0598375623282897,1.85633105741486,1.78556835651398,-1.07275155884903,8.59332623304292
0.71,1.49252208804802,277.877782839035,279.347319399819,-0.0242890824938607,1.83236303780716,1.75938069820404,-0.567743959574651,8.58546207662227
0.72,1.78363346778513,277.931119836397,279.347319399819,-0.0665671270289584,1.74508753903031,1.75331449508667,-0.309137320810832,9.06627591531039
0.73,2.0747344228098,277.902399028682,279.347319399819,-0.0793910315698918,1.62368208809647,1.57189130783081,-0.231153195805471,8.71550464135568
0.74,2.36585446143442,277.926799456102,279.347319399819,-0.0372504346926406,1.50209638211337,1.4935142993927,-0.498988640507669,8.95742230900349
0.75,2.65696718159476,277.928675552809,279.347319399819,-0.0777332517884131,1.535329989414,1.50345945358276,-0.255888779240344,8.80206447451311
0.76,2.94806595620286,278.026128349283,279.347319399819,-0.0355652776450208,1.52158878717938,1.55400896072388,-0.507740427227043,9.20094134502071
0.77,3.23916275496936,278.081998461721,279.347319399819,-0.00984475331166168,1.60524425456259,1.63134169578552,-0.659201637600288,9.17712031845286
0.78,3.53027115720094,278.151049486983,279.347319399819,-0.0517554054760563,1.56528591970022,1.62502717971802,-0.402418216293724,9.37663651846291
0.79,3.82137501360866,278.154956139575,279.347319399819,-0.0374777499008983,1.53149343763501,1.61198282241821,-0.483231678572074,9.49890561122969
0.8,4.11247714495103,278.09608072862,279.347319399819,-0.000434433916408405,1.56508138513541,1.62116014957428,-0.697309667747884,9.34833802426087
0.81,4.40358101707508,278.057218588871,279.347319399819,0.0548901110273966,1.60540246492305,1.67805540561676,-1.00371440258956,9.44172129250733
0.82,4.69467450273236,278.058110288231,279.347319399819,-0.00322575625237362,1.59348203633165,1.70590877532959,-0.661822161511708,9.69794815578538
0.83,4.98577991109816,277.974747412727,279.347319399819,-0.0115627368256768,1.58843694911614,1.66797804832458,-0.603368793393241,9.50063293182771
0.84,5.27688255445981,278.041776736911,279.347319399819,0.0953985555107741,1.82126962212913,1.83291029930115,-1.23986361123439,9.09199320311374
0.85,5.56800099813178,277.981177074175,279.347319399819,0.0178037193921015,1.73333953936664,1.70299887657166,-0.792354175046073,8.8226965351519
0.86,5.85910494206578,277.964167883347,279.347319399819,0.0352621293365552,1.76836334377089,1.73466885089874,-0.875144903270399,8.80784997220919
0.87,6.15020613897148,277.990519281812,279.347319399819,0.0830280938797423,1.77850307989241,1.75414407253265,-1.18354208429546,8.86885971891883
0.88,0.15813205754252,277.950328931367,279.347319399819,0.0839017586463306,1.78800081487482,1.78348791599274,-1.19571038264723,8.97845968671452
0.89,0.449233244823489,277.944414876724,279.347319399819,0.0244065689631488,1.74357858316716,1.74076950550079,-0.826318095063564,9.00226231506858
0.9,0.740341133353514,277.943209765334,279.347319399819,-0.011489711714367,1.72537882899965,1.71670472621918,-0.602948138570224,8.96543500466065
0.91,1.03144799870352,277.88619540025,279.347319399819,0.000788363966781391,1.66940666189705,1.62346804141998,-0.682974512109531,8.73764767691781
0.92,1.32256061527636,277.965023741121,279.347319399819,-0.00167006029746741,1.70278931000773,1.70077836513519,-0.662286983720656,8.99144802928709
0.93,1.61367277317352,277.995550672166,279.347319399819,-0.000650336633392146,1.49997903388687,1.49090051651001,-0.689505634859876,8.94258935577235
0.94,1.90477533698972,278.000545132047,279.347319399819,-0.0972644520694435,1.47501871099738,1.50789153575897,-0.127725123019111,9.19455074705879
0.95,2.19587804889566,277.990376423001,279.347319399819,-0.0218830103917781,1.57810554199517,1.57506203651428,-0.565264653663064,8.98085411250419
0.96,2.48697323355207,278.068160431623,279.347319399819,-0.0561530673272506,1.62745799935267,1.67838799953461,-0.388627564761022,9.31399707770918
0.97,2.7780807111277,278.085099566159,279.347319399819,-0.0746876308477947,1.44989855959022,1.57758605480194,-0.264832818122626,9.77083096703964
0.98,3.06917973218301,278.083828721984,279.347319399819,0.0398896479679185,1.656042179757,1.67228519916534,-0.966709599147961,9.1019084610774
0.99,3.36028788678579,278.077564638471,279.347319399819,0.0335697776063826,1.55832468132806,1.70144844055176,-0.925910817562176,9.85328105581897
1,3.65139482624146,278.041469773949,279.347319399819,0.00134011264274803,1.55038465569153,1.63616967201233,-0.717495584355597,9.50002948791339
1.01,3.94249477738957,277.98572767634,279.347319399819,0.0483075480423102,1.58949936413436,1.63708162307739,-0.984422169097609,9.2756325457494
1.02,4.23360550902556,277.944673837258,279.347319399819,0.0837713018731478,1.60214347173941,1.68607270717621,-1.18766643919735,9.47917826263203
1.03,4.5247115734958,278.005229573886,279.347319399819,0.0723374739789472,1.68933777149592,1.73718667030334,-1.12064797067289,9.25966871394492
1.04,4.81580416616888,277.989262347932,279.347319399819,0.00829272384477198,1.78767631136077,1.74582207202911,-0.740641747144868,8.74336177664476
1.05,5.10690161876229,277.991602769466,279.347319399819,-0.0278990519301305,1.84985611918966,1.81059873104095,-0.533258192970572,8.76737982290313
1.06,5.39801110961035,277.984570655864,279.347319399819,-0.030189853036854,1.87073279787123,1.86263859272003,-0.517142331293427,8.94785315609957
1.07,5.68911428085977,277.922450686887,279.347319399819,0.000819928128453995,1.74210432626522,1.72929465770721,-0.679988356621293,8.92617515996293
1.08,5.9802212157341,277.947664169531,279.347319399819,-0.0796652586181394,1.77676210725944,1.75062155723572,-0.186582941412603,8.84371574144
1.09,6.27133400140274,277.897116617081,279.347319399819,-0.0172399917122676,1.68088449408351,1.65101647377014,-0.566696008468144,8.81356057980413
1.1,0.279253639700258,277.930323958712,279.347319399819,-0.128093015127793,1.65652629483509,1.61961221694946,0.0980843230337617,8.77154736463168
1.11,0.570359848237114,277.92959292582,279.347319399819,-0.0789579818195374,1.55167908655526,1.51578426361084,-0.213807566967672,8.78436976906885
1.12,0.861463710453592,277.940451462682,279.347319399819,-0.0481457740412159,1.46728698892703,1.46014845371246,-0.412883013362097,8.96650809861625
1.13,1.15256657565763,278.060554574715,279.347319399819,-0.115013055775075,1.63272981264937,1.6477313041687,0.00419744252367305,9.09878016759862
1.14,1.44367855961893,278.018098354036,279.347319399819,-0.0128007848182257,1.46059069027896,1.47561240196228,-0.595034791161829,9.08692380227613
1.15,1.7347757305641,278.118699536156,279.347319399819,-0.058628624990313,1.59805556534464,1.67710649967194,-0.336769041510961,9.47495044427663
1.16,2.02587577911482,278.076098036773,279.347319399819,0.0738674333415531,1.60321551460159,1.69389426708221,-1.13381053567256,9.54357216838515
1.17,2.31696821912515,278.09984850679,279.347319399819,0.0970980867322802,1.62610361670029,1.72646772861481,-1.27027013868347,9.61552076937122
1.18,2.60807477331173,278.023693672142,279.347319399819,0.0583189270053337,1.59073569847812,1.65588188171387,-1.02805238141592,9.39477029371887
1.19,2.89918350137284,278.065496988963,279.347319399819,-0.0127489173882481,1.59361673138099,1.69010376930237,-0.593848603379618,9.57774580513868
1.2,3.19028760026934,278.016212921692,279.347319399819,0.020669481366948,1.63906896873731,1.68609261512756,-0.794207922163993,9.27861737414
1.21,3.48138820783925,278.043716314234,279.347319399819,0.0860465512312367,1.82273960441886,1.83042919635773,-1.2012001668107,9.04599448059442
1.22,3.77249592850045,278.022261771685,279.347319399819,0.0071486851808949,1.72712133360585,1.78165853023529,-0.736654237878635,9.32901984883671
1.23,4.06359575196694,277.951388228958,279.347319399819,0.101443903387021,1.7889719451475,1.83690524101257,-1.29408846795964,9.29604850925359
1.24,4.35470117447085,277.993235355456,279.347319399819,0.0711663464863066,1.77703283659581,1.74190711975098,-1.12999544297668,8.79730941635756
1.25,4.6458042179783,277.878914667035,279.347319399819,0.0725633133930365,1.71220286970026,1.68925213813782,-1.11866479214157,8.87053448254725
1.26,4.93691412988712,277.917168265322,279.347319399819,-0.000390880014352486,1.73192167360094,1.7233384847641,-0.673461864348116,8.95440859671941
1.27,5.22802473468339,277.925802136189,279.347319399819,-0.0116513103673442,1.75315611116092,1.76139950752258,-0.605335489981844,9.04494241192614
1.28,5.51913080017433,277.947616585662,279.347319399819,0.0408812537118057,1.71297355457051,1.71953916549683,-0.914955437892257,9.03675826054872
1.29,5.81023991109927,277.943491541064,279.347319399819,-0.0413316674074028,1.64123635515219,1.561399102211,-0.421289176162734,8.51458496731428
1.3,6.101343814834,277.964595033244,279.347319399819,-0.0292221065675766,1.49187987261564,1.48846459388733,-0.507294223108168,8.97999738134899
1.31,0.109258006513471,278.009308563512,279.347319399819,-0.0398327503046757,1.52800080626976,1.47517192363739,-0.452532383186067,8.6982239670105
1.32,0.400364011702138,278.107210960118,279.347319399819,-0.0105726544368097,1.68130881128441,1.67574024200439,-0.640066090416216,8.97890921518228
1.33,0.691462803972478,278.043278153428,279.347319399819,-0.0852056562703463,1.49556997011664,1.60169923305511,-0.172558098927271,9.6613170555718
1.34,0.982560079078219,278.067769166558,279.347319399819,-0.0075089358235827,1.60310007206814,1.66963756084442,-0.634322520380324,9.42988749582918
1.35,1.27367061974009,278.113051515998,279.347319399819,0.0443235914384187,1.56071409268999,1.60761058330536,-0.941776244760915,9.29332295718304
1.36,1.56476927251207,278.038758029749,279.347319399819,0.083045704068682,1.51463501575491,1.64531028270721,-1.15592493444205,9.79885010947984
1.37,1.85587362342835,278.046503849555,279.347319399819,0.0272715653163563,1.584395190751,1.69561123847961,-0.807241579889718,9.67257058933369
