t,theta,omega,r,i_d,i_q,i_q_ref,v_d,v_q
0,0,0,93.0637387642933,-5.96605361323533e-25,0,0,0,0
0.01,0.0600743691002746,90.0752883989271,93.0637387642933,-0.0227800569067615,-0.791553969912528,-1.05410575866699,0.0500767208304917,1.06741661132016
0.02,0.157022872496678,92.5489154792415,93.0637387642933,-0.0351636033040942,0.44839612905315,0.50732034444809,0.138951110803903,3.14403817677454
0.03,0.25403364813883,92.62854344562,93.0637387642933,-0.0520082719633937,0.534935712615391,0.529386639595032,0.246876548648009,2.78434843926031
0.04,0.351032591492629,92.6318434950588,93.0637387642933,0.0666664196289667,0.416403476679017,0.454097658395767,-0.496029296900697,3.05692438315468
0.05,0.448039653533996,92.6056229960729,93.0637387642933,0.0699054244240076,0.566105038292983,0.537702620029449,-0.485163006020759,2.68876449678346
0.06,0.54505448303649,92.7184218867251,93.0637387642933,0.0803820120920901,0.524200289488148,0.567977845668793,-0.546431447108954,3.13390834623286
0.07,0.642061029314405,92.6147630874054,93.0637387642933,0.0295873024950453,0.463643435361098,0.488206058740616,-0.254820701664862,3.00869426788637
0.08,0.739061499778613,92.631544270122,93.0637387642933,-0.0431307959994267,0.514424074795937,0.522918879985809,0.205209539170314,2.9486389172292
0.09,0.83608708708845,92.6310760936655,93.0637387642933,0.0144840162103031,0.40690334674289,0.415911942720413,-0.14404577652966,2.94537257239493
0.1,0.933093633148812,92.6020165059853,93.0637387642933,0.102055385512343,0.445332940770944,0.495745539665222,-0.699870181766168,3.19040461631214
0.11,1.03010736145523,92.6652203195065,93.0637387642933,-0.0497371355619086,0.481357630599738,0.517845690250397,0.211733225496621,3.12922552539023
0.12,1.12711874061641,92.6837887116262,93.0637387642933,0.0308649478406885,0.48596786876015,0.534051656723022,-0.255923207767627,3.20097121487324
0.13,1.22412535450411,92.6243930772084,93.0637387642933,0.0659255934504373,0.57464185387478,0.554029047489166,-0.472926619717689,2.79254768627853
0.14,1.32114844066204,92.5543616749827,93.0637387642933,-0.0506040330405816,0.433803222838721,0.476188063621521,0.230930661320106,3.18451935665849
0.15,1.41816530015807,92.7093911670921,93.0637387642933,-0.0120655336612595,0.407564959184558,0.500433623790741,0.0251273316324368,3.47896685285963
0.16,1.51516943094449,92.6432134995626,93.0637387642933,0.0412329626526415,0.589617486351525,0.557108342647552,-0.298787910799224,2.73430851269211
0.17,1.61218044453763,92.5946017732876,93.0637387642933,0.0175394507760863,0.560048532175309,0.511414289474487,-0.166365029825198,2.66459405412359
0.18,1.70919835970873,92.716515413734,93.0637387642933,0.000827963379878283,0.517882271433101,0.553590714931488,-0.0499123951350825,3.14875296051938
0.19,1.80621756199095,92.6571001154769,93.0637387642933,-0.0201517977907785,0.59233045681451,0.536238312721252,0.0799043215187922,2.59479458877598
0.2,1.90322498346515,92.6985220432224,93.0637387642933,-0.0708563428802554,0.532960106896558,0.593432486057281,0.368716322027927,3.32255456307625
0.21,2.00024606295886,92.7261555695307,93.0637387642933,-0.05651539669864,0.50986571862622,0.503882229328156,0.30565084639901,2.8949119949473
0.22,2.09726423978895,92.6418797820518,93.0637387642933,-0.0554098653826838,0.587570531219081,0.545550465583801,0.289210134381961,2.67973157768573
0.23,2.19427501603417,92.6592455395888,93.0637387642933,-0.0220641105879961,0.463149108348127,0.518397033214569,0.0870765790747595,3.28483774208054
0.24,2.29128540216247,92.6771805729152,93.0637387642933,-0.0124535494073083,0.48473492411312,0.507379293441772,0.0711061448965725,3.07679338288134
0.25,2.38830911685114,92.6462862773244,93.0637387642933,0.0381778566204735,0.50462096281681,0.508443236351013,-0.230339569718014,2.96312260858158
0.26,2.48532327446094,92.6260971465795,93.0637387642933,-0.0584246986552004,0.445002326178763,0.529019057750702,0.322258974232758,3.45281058744143
0.27,2.58233666375554,92.6302906633189,93.0637387642933,-0.0376192355538903,0.449812982066614,0.480377942323685,0.210456600096723,3.11257448076121
0.28,2.67934551497432,92.6448091823179,93.0637387642933,0.0780842726284942,0.549808426331811,0.584555983543396,-0.491359886594862,3.16288490297632
0.29,2.77636614882692,92.6171759094517,93.0637387642933,0.0536129831048192,0.395277380244036,0.430824846029282,-0.398215157423569,3.15988454750773
0.3,2.87337868810339,92.6200111180413,93.0637387642933,-0.075246131349151,0.440645323648627,0.435490906238556,0.414999996254655,2.90680566947769
0.31,2.97039411365841,92.6736353747266,93.0637387642933,0.100377778621152,0.559998992696504,0.580882847309113,-0.654520087804719,3.0786205483548
0.32,3.06740266126846,92.6353932680665,93.0637387642933,0.0318789882065273,0.393995820395101,0.452614158391953,-0.285948564348613,3.30428102080345
0.33,3.16441335906649,92.6772896902333,93.0637387642933,-0.0622788113387652,0.568045101226415,0.581814169883728,0.327895507169087,3.03586449753672
0.34,3.26144069077854,92.6435178848569,93.0637387642933,0.00727184951069509,0.505994780279661,0.517974615097046,-0.0714718952323795,3.0250313896323
0.35,3.35844997719002,92.6863471591908,93.0637387642933,0.0177969298843354,0.494224027699223,0.544354259967804,-0.173707735601825,3.24980664213502
0.36,3.45547200456173,92.6622793797506,93.0637387642933,-0.0902943156844684,0.49775574587961,0.522090077400208,0.476236998917384,3.0848014752757
0.37,3.55249531967746,92.6279490396535,93.0637387642933,0.0403404211753797,0.470590496037424,0.504342377185822,-0.325267018804074,3.14670308325254
0.38,3.64950886445273,92.6504175290819,93.0637387642933,0.0783566392542232,0.464228126024079,0.536921083927155,-0.591288949383487,3.36236560514708
0.39,3.74653127163941,92.6269835481605,93.0637387642933,-0.038659704787576,0.467640885202287,0.483097076416016,0.130879823325893,3.01538472203941
0.4,3.84356040125306,92.6346975623249,93.0637387642933,0.0431535847951302,0.461082878015159,0.4815414249897,-0.362450273966146,3.03505751963706
0.41,3.94056675970667,92.6306911202225,93.0637387642933,0.0332546002833486,0.476637286446647,0.539390504360199,-0.305185639416802,3.28392053191571
0.42,4.03758407219368,92.6253230981297,93.0637387642933,0.012948867308597,0.50843947427627,0.472829729318619,-0.158523890066486,2.69961700741354
0.43,4.13459461327469,92.6191573910314,93.0637387642933,-0.0153509063058688,0.482419768743038,0.489622861146927,0.0241989844836039,2.96889820486666
0.44,4.23160215646161,92.6363693608229,93.0637387642933,0.0211556004756775,0.47912091873682,0.517843067646027,-0.207805740986494,3.14846870030676
0.45,4.32861994771321,92.6802031435449,93.0637387642933,-0.050567556546043,0.548513886655999,0.565360307693481,0.254832612523581,3.03388570218494
0.46,4.42564150659319,92.6916961411263,93.0637387642933,0.0521900658993923,0.436325509896552,0.433365315198898,-0.372186754652134,2.91149742093876
0.47,4.52265809413621,92.6365241474833,93.0637387642933,0.0259954146634665,0.469580139794364,0.485692769289017,-0.211543034935144,3.00419163735596
0.48,4.61967837917005,92.6288222967418,93.0637387642933,-0.00519371372877853,0.586250561864912,0.563166379928589,-0.0202155903694745,2.78802510572875
0.49,4.71669821712411,92.6571124210487,93.0637387642933,-0.0871907990503983,0.438900785524611,0.4725321829319,0.486977873442135,3.12430662782684
0.5,4.81371235278583,92.6132590028055,93.0637387642933,0.0803262484864581,0.456359686433822,0.50914192199707,-0.516738003354353,3.23374795996223
0.51,4.91073305717144,92.6469687061299,93.0637387642933,-0.0564735535023986,0.579684175209723,0.547953426837921,0.297799105898731,2.74344289245004
0.52,5.00774592248071,92.7009086178911,93.0637387642933,0.0373286284322531,0.503412086642441,0.580238521099091,-0.272553482162127,3.38932474594575
0.53,5.10476613963318,92.6265786218187,93.0637387642933,-0.087364636031425,0.55624813671261,0.523252904415131,0.453600590705276,2.71801724254287
0.54,5.20178046212351,92.6583306381802,93.0637387642933,-0.102952945024248,0.50246972846215,0.532808244228363,0.535808460287804,3.12239713632678
0.55,5.29879438766849,92.7070368634446,93.0637387642933,-0.0116443654143216,0.490604089962153,0.507348537445068,0.0152410024490035,3.02830903463581
0.56,5.39581799604937,92.6533421183238,93.0637387642933,0.0459637279461086,0.511076727657393,0.533208668231964,-0.349432828841605,3.04928002629506
0.57,5.49282741960072,92.5657883737577,93.0637387642933,-0.0129313547122044,0.445138888990241,0.496604323387146,-0.00636753105545269,3.25307512241196
0.58,5.5898473960749,92.6862974473803,93.0637387642933,-0.0502985389040584,0.489066761419359,0.462901830673218,0.266777840153865,2.75493105879657
0.59,5.68687266164954,92.6427904369821,93.0637387642933,0.0545798572392485,0.541764662642643,0.570805966854095,-0.394052537406482,3.0766137286941
0.6,5.78387958777638,92.6557152393742,93.0637387642933,-0.0462758093012927,0.542107253723832,0.616798996925354,0.205874364732198,3.37967380998435
0.61,5.88088820503056,92.636958738159,93.0637387642933,-0.023641263375751,0.471904409510133,0.501278340816498,0.114384795851517,3.09701026601603
0.62,5.97790929079429,92.6394741533011,93.0637387642933,0.00434022855487562,0.521162979349769,0.527996599674225,-0.0589797180293601,2.96278764844863
0.63,6.07491444872082,92.589063411122,93.0637387642933,-0.0507083212492446,0.409626099240525,0.471688628196716,0.225987498671355,3.32026097493535
0.64,6.17193014148692,92.6835181880469,93.0637387642933,-0.0485175748792941,0.515651729014378,0.549083292484283,0.246065829637173,3.1283115015047
0.65,6.26895738070954,92.6109184408915,93.0637387642933,-0.0713232975026792,0.545612636158701,0.496704548597336,0.386047874814098,2.63395302606022
0.66,0.08279383864447,92.647402760874,93.0637387642933,-0.00335885978105285,0.434711773122385,0.458903282880783,-0.0532129706305817,3.06589580614623
0.67,0.179803730903873,92.638749001662,93.0637387642933,-0.0931672523824321,0.487088530719544,0.495298445224762,0.537456282059124,2.96622974168303
0.68,0.276824051382911,92.6713290109572,93.0637387642933,0.0427000879530643,0.530955430744328,0.524794518947601,-0.287703183103735,2.89277330527631
0.69,0.373838627448578,92.631033670572,93.0637387642933,0.00460390803104904,0.418640868242656,0.446908414363861,-0.103209853746841,3.09511701513486
0.7,0.470851647666728,92.598543471955,93.0637387642933,-0.0266112913415928,0.462498134725271,0.50319916009903,0.115812521325636,3.16552191654484
0.71,0.567867096007842,92.6937729045488,93.0637387642933,-0.00762044207248413,0.599204364619462,0.56129664182663,-0.00621151472477858,2.71413379796248
0.72,0.664885038691578,92.6610143956858,93.0637387642933,-0.0383249987867686,0.43487958263418,0.492567896842957,0.149557461581059,3.26859495322822
0.73,0.761900140001501,92.6765617777225,93.0637387642933,-0.0592898230271378,0.562330537911181,0.576455175876617,0.292953927276119,3.01180557776407
0.74,0.858920461416884,92.636642141866,93.0637387642933,-0.019678241195608,0.56899629344121,0.542312264442444,0.0609733318879218,2.77847419288648
0.75,0.955934204135138,92.6206530204774,93.0637387642933,0.0870710214958201,0.444057977303244,0.503438293933868,-0.626986564915146,3.27898619233543
0.76,1.05295149551139,92.658225609321,93.0637387642933,-0.0279620116030895,0.536975572387925,0.550808787345886,0.0879056039670402,3.01001741729482
0.77,1.14998046581623,92.579472106995,93.0637387642933,-0.0906980122894665,0.457344969393617,0.451468735933304,0.515354890808613,2.88543121852234
0.78,1.24699020070146,92.6552657276378,93.0637387642933,0.0605316501999962,0.436554969972051,0.492854803800583,-0.434874374327282,3.24659249557013
0.79,1.34400644463158,92.5992152767929,93.0637387642933,0.0587980015314133,0.55779619594607,0.51271915435791,-0.403924905485227,2.65502951972765
0.8,1.44102341324043,92.6378925225205,93.0637387642933,-0.0782078163470339,0.468008804173845,0.478294044733047,0.409947257067685,2.99214660772718
0.81,1.53803330229761,92.6524502328624,93.0637387642933,-0.0231975854987208,0.615950498610934,0.593594312667847,0.0669987821858102,2.78751957418239
0.82,1.63504518765561,92.6804959379959,93.0637387642933,-0.0589799935901998,0.546100897592714,0.586042940616608,0.291405562228729,3.1860662280889
0.83,1.73207485337969,92.6045970284918,93.0637387642933,-0.0181697105359077,0.31776948999972,0.389799267053604,0.0572818230570134,3.36384465418316
0.84,1.82908572686301,92.6289976624937,93.0637387642933,0.0141601180367866,0.47520210396851,0.513274490833282,-0.150558681615056,3.14992927010294
0.85,1.92610365930891,92.6879261543789,93.0637387642933,-0.011135845376155,0.552602131194595,0.577695190906525,0.0169974478515331,3.08635906953707
0.86,2.02312267894158,92.7098521752771,93.0637387642933,0.0651458354016262,0.489636029110035,0.53806459903717,-0.442650445963676,3.21818787921455
0.87,2.12013907133807,92.6392261214893,93.0637387642933,0.0345975136594255,0.588082468500033,0.564252257347107,-0.268427215337868,2.77178596030193
0.88,2.21715300646626,92.6835485872322,93.0637387642933,-0.042802459769015,0.545684401291833,0.594188690185547,0.200669196022218,3.23064735850064
0.89,2.31416306497024,92.6828461419895,93.0637387642933,0.0326248755162501,0.502641835736861,0.593502581119537,-0.247775892918348,3.47928064088064
0.9,2.41118546190882,92.6159389430543,93.0637387642933,-0.0137816827810852,0.541805884536556,0.513956546783447,0.0129025977755569,2.75291159383722
0.91,2.50820158484584,92.6823911295399,93.0637387642933,-0.0556863938404828,0.489778494382635,0.511497676372528,0.246243675918537,3.0734376646188
0.92,2.6052167571727,92.708344044298,93.0637387642933,-0.0131535531979234,0.520356524499154,0.560595810413361,0.0237336036676795,3.16287094223911
0.93,2.70223550160512,92.6468424481998,93.0637387642933,0.0392200621788279,0.504658144144804,0.515071094036102,-0.2815821067651,2.98588461090414
0.94,2.7992519761326,92.6355907014947,93.0637387642933,-0.00358061322067452,0.468653827327293,0.515096366405487,-0.0393433971451797,3.22148086175346
0.95,2.89626217269723,92.6934488203225,93.0637387642933,-0.0068744363749834,0.490433577306675,0.525735676288605,0.00494218143538092,3.14263749336495
0.96,2.99328914655577,92.6365041546961,93.0637387642933,0.0549425313809814,0.520359747885494,0.525546252727509,-0.357631325549259,2.95294507476103
0.97,3.09030449761872,92.6372927052904,93.0637387642933,-0.0387999320022876,0.524794093816971,0.579127073287964,0.182374999687131,3.25816377534659
0.98,3.18731442670511,92.6667299500484,93.0637387642933,-0.0657913112963112,0.528149161894467,0.571880698204041,0.384005373983312,3.18528117027596
0.99,3.28433783051839,92.6086629447623,93.0637387642933,-0.0251912656815702,0.55760675942032,0.518101811408997,0.128214087340401,2.68627584965996
1,3.38134876474329,92.712661435082,93.0637387642933,0.045407774198894,0.560763451668548,0.531168818473816,-0.33472873772557,2.76268869530726
1.01,3.47836766630585,92.6568747613571,93.0637387642933,-0.020861392715271,0.473084327758258,0.48047262430191,0.109069362806454,2.96109329560795
1.02,3.57538406893131,92.6198719249704,93.0637387642933,0.033907275938239,0.45965816627177,0.496678560972214,-0.239722542995314,3.1568364521343
1.03,3.67238946718944,92.7471503405077,93.0637387642933,-0.028415066449407,0.509023508300103,0.553093612194061,0.0879558288161348,3.21540679098898
1.04,3.76940092505631,92.6843673836684,93.0637387642933,-0.0505740268229301,0.505680191581687,0.537660837173462,0.254652588131226,3.13127435525442
1.05,3.86644040183406,92.6141272127518,93.0637387642933,-0.0506284455994907,0.517586103827207,0.499147981405258,0.257499708909654,2.8137553229825
1.06,3.96344788075968,92.6739849703853,93.0637387642933,-0.0575982149891776,0.397287545096564,0.462272703647614,0.273382389759402,3.32417210890325
1.07,4.06045651628574,92.6016204490005,93.0637387642933,0.0742064931755561,0.526728737493689,0.509722292423248,-0.463919937059057,2.83502375531875
1.08,4.15747635030472,92.6173248552195,93.0637387642933,0.0414222850297921,0.540672417632329,0.575678527355194,-0.269358058926606,3.15548885115836
1.09,4.25449153962694,92.6500215146566,93.0637387642933,-0.046368460202735,0.542401367838991,0.50416088104248,0.230623812389067,2.70610066940902
1.1,4.35150465725975,92.6209864819313,93.0637387642933,0.0276669960872844,0.539995061527784,0.510791659355164,-0.188909775258417,2.76732174896872
1.11,4.44851901139048,92.6853767083498,93.0637387642933,-0.0461493196567261,0.576752537717506,0.549128949642181,0.259983672984638,2.79487817110164
1.12,4.54553609386002,92.6243535095626,93.0637387642933,0.0297271980526606,0.42420726490081,0.476222366094589,-0.22331673084419,3.25021261993848
1.13,4.64255117052803,92.6295913462783,93.0637387642933,0.0473405012847418,0.570427738868019,0.528877258300781,-0.312981282502057,2.68925240248409
1.14,4.73957944288884,92.631300629692,93.0637387642933,0.0052703723102628,0.413809630906844,0.443245142698288,-0.0786649452530098,3.11434275998568
1.15,4.8365918392703,92.7027746516878,93.0637387642933,0.0102453188834424,0.510857150482217,0.566618740558624,-0.150129771988588,3.25401304737499
1.16,4.9336084426312,92.5994093640145,93.0637387642933,-0.0321977417527913,0.426301345105439,0.456382483243942,0.139321667737669,3.11697425185171
1.17,5.03063005911444,92.6647978137458,93.0637387642933,-0.0544268041470402,0.454767392025346,0.456294775009155,0.300216287815221,2.94321136856382
1.18,5.12764367697267,92.6611618104441,93.0637387642933,0.0351979587623043,0.4927071311837,0.544630885124207,-0.2565741438084,3.2339728598506
1.19,5.22465984688249,92.6777520156031,93.0637387642933,0.0130389474964261,0.544862401505937,0.551261603832245,-0.114557766335668,2.97684489636008
1.2,5.32167759330055,92.742515260947,93.0637387642933,0.00760583926447303,0.508414662340563,0.550281941890717,-0.0818662389839938,3.18832720490928
1.21,5.41869338436317,92.6098450359886,93.0637387642933,0.0352942392265112,0.476848008574921,0.540472209453583,-0.265590854998858,3.29934501438273
1.22,5.51571012261064,92.6681645796102,93.0637387642933,0.0077481658876023,0.545863225500534,0.579453110694885,-0.105447390984982,3.13411707113278
1.23,5.61272110860188,92.6775812062736,93.0637387642933,0.020328791601267,0.488124883544612,0.549092948436737,-0.195150003796761,3.29548978205204
1.24,5.70973167998538,92.6529544803452,93.0637387642933,0.0199730322537933,0.593329882342202,0.563706815242767,-0.185439764994081,2.74993729362825
1.25,5.80675805807666,92.6079754344747,93.0637387642933,-0.112535127273456,0.43972153134164,0.480942755937576,0.609570891567557,3.18184842650802
1.26,5.90377095568846,92.784494613344,93.0637387642933,-0.023934328210323,0.513813405835644,0.529024660587311,0.109601263794897,3.01637147791672
1.27,6.00078452252168,92.6373226727916,93.0637387642933,0.0172890325264625,0.589527949163617,0.557899653911591,-0.158111671692079,2.73470119633562
1.28,6.09780464489779,92.6234517165775,93.0637387642933,-0.0154140654750052,0.532780993610727,0.5157510638237,0.0290519105279521,2.83226343392947
1.29,6.19481834709335,92.6756748458026,93.0637387642933,-0.020457198595798,0.487714831658998,0.520507514476776,0.0823686181409484,3.11752235810958
1.3,0.00865339980058444,92.6310629283071,93.0637387642933,-0.0861087042349173,0.516522456765207,0.474531143903732,0.485540929599389,2.66491827348036
1.31,0.105675292491432,92.5720155926199,93.0637387642933,-0.019638625255088,0.439333502977612,0.488252907991409,0.064771657268991,3.21902090586182
1.32,0.202684328524896,92.6353187670183,93.0637387642933,0.0207934538329155,0.458869219074569,0.49831634759903,-0.128760112282194,3.14919443604306
1.33,0.29971245613469,92.6453752526009,93.0637387642933,0.0235834642144814,0.58308639109097,0.532114386558533,-0.186933892511076,2.6034271937393
1.34,0.396728463759048,92.5894166990703,93.0637387642933,-0.0521858189977083,0.412389193337305,0.422295928001404,0.222860002796706,2.98289957149172
1.35,0.493729237215824,92.6594897550677,93.0637387642933,0.0854483930184654,0.576257616129965,0.571414232254028,-0.563047413661825,2.89204709397607
