t,theta,omega,r,i_d,i_q,i_q_ref,v_d,v_q
0,0,0,278.211866599198,-3.04797447050788e-24,0,0,0,0
0.01,0.0626679339821502,123.142687998875,278.211866599198,0.173636777902021,7.46653902517241,10,-1.18200121177149,19.0831733672633
0.02,0.256677243563559,244.874087411113,278.211866599198,0.284097143017545,7.67295769151181,10,-2.15072387102223,21.3278834650457
0.03,0.541734758997159,276.849510085457,278.211866599198,-0.102851566182338,1.74929302993395,2.02373576164246,-0.0284956614782453,9.89890021669693
0.04,0.831512061637982,276.936370785057,278.211866599198,-0.0955725555146753,1.59676054476096,1.77068030834198,-0.0870565301907136,9.46922950021241
0.05,1.12129920646882,276.841975485724,278.211866599198,0.0848334851540846,1.62589025316195,1.79361140727997,-1.18695567144758,9.57249203758395
0.06,1.41109779395485,276.84421474675,278.211866599198,-0.018244267605678,1.66922195569265,1.77952885627747,-0.557875050454172,9.35147051665619
0.07,1.70092407058224,276.895951909252,278.211866599198,-0.0261654833124849,1.7355544875154,1.83272111415863,-0.510838676566412,9.3569893453703
0.08,1.99075992657101,276.788597409658,278.211866599198,0.0215344244659203,1.71216255678668,1.7945648431778,-0.797340434521305,9.33054660799634
0.09,2.28061552201373,276.849131665885,278.211866599198,-0.0387446518147502,1.77130037185162,1.83572018146515,-0.447946889472732,9.25407939820525
0.1,2.57045827853974,276.813051713977,278.211866599198,0.04058709031715,1.71664126422493,1.78051376342773,-0.925562029811419,9.30899980398251
0.11,2.86031636886803,276.763948871535,278.211866599198,0.0131401700706749,1.806169759192,1.82306909561157,-0.763607700117824,9.05953297555131
0.12,3.15018634924704,276.748917946834,278.211866599198,0.0526930316844525,1.86416837298893,1.88107109069824,-0.992199297632478,9.07243963107815
0.13,3.44005642043595,276.721976544517,278.211866599198,-0.00673265077893659,1.75261813437172,1.7675553560257,-0.632633851281058,9.07884459981151
0.14,3.72992399406317,276.741650540575,278.211866599198,0.0542829516654362,1.78913300919717,1.75137221813202,-1.00140026421319,8.7800905447757
0.15,4.01979805885478,276.723158352608,278.211866599198,0.028846319364809,1.66674011451768,1.57954704761505,-0.855193026876934,8.48801552042073
0.16,4.30967490477249,276.784565894847,278.211866599198,-4.6509816648721e-05,1.5666084128218,1.57086145877838,-0.694723249746091,9.03551219238924
0.17,4.5995435535139,276.824413654493,278.211866599198,-0.0514254129421809,1.4497340788796,1.45181286334991,-0.399709006426941,9.03214089440174
0.18,4.8894043704327,276.932554052621,278.211866599198,0.0118968173782091,1.7091530492687,1.69524395465851,-0.796157321095674,8.95751338550949
0.19,5.17928272912365,276.921359519502,278.211866599198,-0.0308680358429021,1.61482971342811,1.59532308578491,-0.53630068337406,8.91556920511744
0.2,5.46914485670159,276.931144206986,278.211866599198,-0.0174905458358861,1.70586108141379,1.77649283409119,-0.621275599561375,9.47138212832195
0.21,5.75900815254092,276.842472611745,278.211866599198,0.0149282320715048,1.56922673151178,1.71683740615845,-0.804379379527048,9.94170411277837
0.22,6.04887679058039,276.869095708138,278.211866599198,0.131142864921221,1.71441973905853,1.71662056446075,-1.49426233112851,9.07181938683843
0.23,0.0555662210070009,276.830313134864,278.211866599198,0.0232598692104081,1.6724561901066,1.73977696895599,-0.830776900822462,9.45904766706352
0.24,0.345442182667401,276.823762608455,278.211866599198,-0.000817890826391499,1.71109169495369,1.69398760795593,-0.681442233188162,8.94943602304262
0.25,0.635320242655951,276.814863852979,278.211866599198,-0.0561050926181302,1.85868586942593,1.86470115184784,-0.346373259001313,9.07828971759683
0.26,0.925198350187851,276.777321823403,278.211866599198,0.0145749515062969,1.82979438053245,1.86195492744446,-0.767542648766635,9.23564293854898
0.27,1.21507319044626,276.790688794762,278.211866599198,-0.0794127909199326,1.86022133679515,1.87217140197754,-0.18570823363685,9.11621594392141
0.28,1.50494770980102,276.731513867855,278.211866599198,-0.0371771517492624,1.90117124091074,1.84031558036804,-0.459657589089664,8.68335257103643
0.29,1.79483447808214,276.73544197299,278.211866599198,-0.0885842453810722,1.77952517730556,1.77399814128876,-0.137160579771297,9.00247297625299
0.3,2.08471392430575,276.75629407834,278.211866599198,-0.0717233952425065,1.8009949732625,1.77703320980072,-0.251684384814764,8.88867152525511
0.31,2.37458170266416,276.759360064678,278.211866599198,-0.0820384957592757,1.74077142619181,1.69917583465576,-0.176446086865674,8.79487159375758
0.32,2.66445307406895,276.755510437586,278.211866599198,-0.0307536670487581,1.63994916056545,1.56334805488586,-0.50215851703578,8.59495231082999
0.33,2.95432865246356,276.84523973738,278.211866599198,-0.105694080933327,1.64857476151122,1.60240292549133,-0.0464167482538544,8.77929159730379
0.34,3.24419479709072,276.84996028695,278.211866599198,-0.0353946048150855,1.64082961024867,1.63298916816711,-0.488778857405654,9.02152124735941
0.35,3.53407046242043,276.83576982518,278.211866599198,-0.0860538306110242,1.54105242081545,1.57231760025024,-0.203638402187435,9.25033177327332
0.36,3.82393530107086,276.912895722435,278.211866599198,0.0331121920799078,1.57971667603423,1.66353917121887,-0.931437273698083,9.57689748455692
0.37,4.11380925047689,276.908736786239,278.211866599198,0.0751233176406336,1.62697350013751,1.72165417671204,-1.16166731634051,9.63554605247124
0.38,4.40368447245539,276.915403948683,278.211866599198,0.0530777334552207,1.60551733744166,1.75973796844482,-1.02738227986779,9.98611316551534
0.39,4.6935445636636,276.856772617187,278.211866599198,0.071925105775709,1.67291690575269,1.82885098457336,-1.14216400679103,10.0155758442082
0.4,4.98341119818106,276.841366267526,278.211866599198,0.0462281260621201,1.73731956814633,1.81465518474579,-0.988507329086133,9.55517603213547
0.41,5.27327293357099,276.860264685273,278.211866599198,-0.0359903091714453,1.76074015474072,1.80465984344482,-0.489053469611198,9.36990400421323
0.42,5.56315541041561,276.799301773133,278.211866599198,0.0888727515140284,1.80790118335137,1.80846261978149,-1.22857319393261,9.0995919095892
0.43,5.85304291190906,276.80908723446,278.211866599198,0.0364863860264897,1.80573262231316,1.77236115932465,-0.920350127046741,8.8817568618508
0.44,6.14291976378566,276.76457719005,278.211866599198,0.0615510441403252,1.81629340458007,1.82952761650085,-1.07151435562527,9.16131921770947
0.45,0.149610576293172,276.778086929588,278.211866599198,0.0497063595398,1.81591077366872,1.77820527553558,-1.0010061004717,8.86226830251885
0.46,0.439490297571544,276.761091882031,278.211866599198,0.00611470123160757,1.86882735924492,1.78040456771851,-0.736313833173439,8.5504531238047
0.47,0.729361711444255,276.754351017139,278.211866599198,-0.033932075679683,1.69888857630441,1.66122055053711,-0.481481579199309,8.86456106771816
0.48,1.01924605710392,276.776496461014,278.211866599198,0.0583403609491117,1.67509995991124,1.60016489028931,-1.04242847859346,8.62253960750606
0.49,1.30912537459211,276.851225743114,278.211866599198,-0.0307904606352003,1.66194836070545,1.60893595218658,-0.512816094966035,8.74996170527629
0.5,1.5989957275387,276.852411958397,278.211866599198,0.0459455255226284,1.67358199684079,1.63990616798401,-0.98771284142844,8.87174906910477
0.51,1.88886162766392,276.929419580186,278.211866599198,-0.0495853635431055,1.68163303615398,1.74610030651093,-0.415317904009878,9.47338147936995
0.52,2.17874443384193,276.988515860366,278.211866599198,0.00802371314774153,1.70757082019131,1.73477244377136,-0.756515358493039,9.22934505634436
0.53,2.46861358466044,276.872457111604,278.211866599198,0.0881123754852005,1.69412192270545,1.72231554985046,-1.26800297460996,9.23391841337302
0.54,2.75848187489977,276.836322258578,278.211866599198,0.121131257954954,1.60360458326612,1.72146642208099,-1.44784658781272,9.77989046235749
0.55,3.04835636897849,276.823839059778,278.211866599198,0.000520472429689556,1.63888117390776,1.69557249546051,-0.720534012651297,9.40849526046701
0.56,3.33821157244139,276.797020305835,278.211866599198,0.0919261190426279,1.63853982428422,1.73544049263,-1.27675854663758,9.67627985331665
0.57,3.62809461506663,276.798279903911,278.211866599198,-0.00596988647060182,1.76806836104158,1.73443305492401,-0.67327479212808,8.88166096954049
0.58,3.91797633202512,276.801650170662,278.211866599198,0.0277731413448896,1.82575519770617,1.82294464111328,-0.857211123269335,9.06080191173708
0.59,4.20785663775596,276.779261433203,278.211866599198,-0.0455983907227514,1.84671204882984,1.84666562080383,-0.401527747690453,9.07072410370042
0.6,4.49772298846919,276.755043311567,278.211866599198,-0.0198504562968697,1.91102261072805,1.84692299365997,-0.56141385954117,8.70059172420047
0.61,4.78759547567529,276.781124097587,278.211866599198,-0.0821101229235111,1.81947839879879,1.79490065574646,-0.17194273274436,8.95043576828869
0.62,5.07747400131595,276.781804688802,278.211866599198,0.00536032290785959,1.79844987936582,1.76369976997375,-0.706001004527954,8.8844821685408
0.63,5.36736098553825,276.667330569169,278.211866599198,-0.108770770743276,1.66654221139531,1.66515636444092,-0.0416015255276293,9.07069527134098
0.64,5.65723559347102,276.799861878083,278.211866599198,-0.0411961741444419,1.68012299591661,1.61430835723877,-0.454712252245393,8.68895125149722
0.65,5.94711727894265,276.818398207238,278.211866599198,-0.0843435729006803,1.63596536959854,1.59004056453705,-0.182987619610587,8.79604235668105
0.66,6.23699119166142,276.923330689439,278.211866599198,-0.0355543639737371,1.70448547170103,1.7403392791748,-0.483649745503787,9.28961000135626
0.67,0.243675794428718,276.943469548233,278.211866599198,-0.0633977942848512,1.67921609740716,1.73662197589874,-0.315638229684145,9.4228850046187
0.68,0.53353808702364,276.951643081497,278.211866599198,-0.0718574092162378,1.61914595655934,1.74092161655426,-0.268343136078979,9.8220898622744
0.69,0.823419091487903,276.90144199975,278.211866599198,0.0939757643298079,1.6173624511587,1.71051120758057,-1.27348196828837,9.62768447819884
0.7,1.1132980043046,276.883114277304,278.211866599198,-0.0027918131790594,1.57906085075045,1.69800901412964,-0.67140456980585,9.76703735694871
0.71,1.40316201397724,276.828971245879,278.211866599198,0.0419160309312161,1.58831030737501,1.71649086475372,-0.919936715648789,9.83715687635351
0.72,1.69303453977114,276.849228136041,278.211866599198,0.011351251875603,1.68958082214807,1.75863969326019,-0.735874594605238,9.48783307828818
0.73,1.98290986227758,276.822947645546,278.211866599198,-0.020166065453716,1.73947976714835,1.78161537647247,-0.559100212059624,9.32159021411863
0.74,2.27278779947754,276.77749732338,278.211866599198,0.0895785779714765,1.79298871266636,1.80052626132965,-1.22401630923984,9.11408302797114
0.75,2.56267213214241,276.800753531976,278.211866599198,0.0341649094639459,1.81845764702372,1.82542157173157,-0.895259333194595,9.09616552915385
0.76,2.85254199408774,276.783643398451,278.211866599198,0.0110727452683116,1.83581358536283,1.7905170917511,-0.749571834924623,8.79675088113997
0.77,3.14242531097407,276.72891321404,278.211866599198,-0.0207712614781605,1.84003480556198,1.75369310379028,-0.548833303574614,8.5422531623666
0.78,3.43230503756844,276.747764403322,278.211866599198,0.0236806635899592,1.86958914497431,1.79410290718079,-0.818598659500071,8.60269435090583
0.79,3.72218734412293,276.788150282062,278.211866599198,-0.00809342078906539,1.70134948097468,1.62426507472992,-0.617744889607944,8.58583992469051
0.8,4.01205908434705,276.782744250148,278.211866599198,0.0217973767903686,1.69675777290498,1.63748502731323,-0.78867497571685,8.70399347452146
0.81,4.30194186315924,276.747563707596,278.211866599198,-0.0402321130134913,1.56782497634662,1.526611328125,-0.412583620988927,8.80196053674927
0.82,4.59181175183331,276.804019902695,278.211866599198,-0.0466544653938618,1.62147879283376,1.600172996521,-0.395711658036578,8.92388583719465
0.83,4.88169092753161,276.85097800377,278.211866599198,-0.0527978316003387,1.50938348931503,1.59020018577576,-0.378836718318478,9.52779570255591
0.84,5.17155220069287,276.919700256874,278.211866599198,-0.0612670059278686,1.6329766460581,1.67681503295898,-0.318849253488469,9.32026337718777
0.85,5.4614238249136,276.897441194382,278.211866599198,0.0569784331333747,1.71013153875234,1.75026369094849,-1.04261088670907,9.2943431567105
0.86,5.75129663864782,276.794180082089,278.211866599198,0.124781508488778,1.58022993817783,1.70068025588989,-1.44709415185021,9.76806448080415
0.87,6.04117252028129,276.80727926737,278.211866599198,0.0634617393177719,1.65906858676253,1.75423347949982,-1.08672876945769,9.61496364161963
0.88,0.0478544052949097,276.824982736383,278.211866599198,0.114597188106486,1.7151697642149,1.82456588745117,-1.40042208005631,9.7103298708888
0.89,0.337720336625118,276.80701270592,278.211866599198,0.000354561612635584,1.82097386188001,1.79049706459045,-0.703751453063775,8.87855229148523
0.9,0.627600891349392,276.857629111128,278.211866599198,0.0290405390294972,1.8252961969067,1.77302658557892,-0.87414488686998,8.73850502243353
0.91,0.917471216101386,276.811576960863,278.211866599198,-0.0461172306847407,1.91054862462312,1.89575147628784,-0.419775272057544,8.96745396252028
0.92,1.20734259769739,276.805586137317,278.211866599198,-0.0187041969802607,1.88644058492911,1.87259030342102,-0.605208505228944,8.98618300904693
0.93,1.49720964564041,276.749412375592,278.211866599198,-0.0923469666651932,1.79843439373123,1.79884314537048,-0.153239549528435,9.09088857658603
0.94,1.78708531831707,276.716111788286,278.211866599198,-0.0764943131966078,1.8156055803045,1.72934138774872,-0.235249585841998,8.57130847295616
0.95,2.07696776023396,276.702517538536,278.211866599198,-0.0816806799275654,1.67736030129184,1.65864300727844,-0.211743129309881,8.97419732930094
0.96,2.36683024382689,276.773694649149,278.211866599198,-0.0221571657281691,1.69088979622417,1.6777571439743,-0.574187788240767,9.03046685624222
0.97,2.65671045649346,276.826661837647,278.211866599198,-0.139263674539658,1.63632199833979,1.58391106128693,0.140719529206262,8.78850455439037
0.98,2.94658403677787,276.894032641773,278.211866599198,-0.0798168864513929,1.76173994604373,1.73640036582947,-0.210737955832512,8.95348896204387
0.99,3.23646862559323,276.953123820022,278.211866599198,-0.111935826423544,1.67146810288551,1.74697804450989,0.00162668291155599,9.53980624557813
1,3.52633501575225,276.997133225347,278.211866599198,-0.0919068043779315,1.59349283204572,1.6737277507782,-0.11360978052283,9.58016203495247
1.01,3.81620146601054,276.920086215977,278.211866599198,0.106932401164359,1.6206910863744,1.70521724224091,-1.32183852045758,9.60534605938443
1.02,4.10607221169836,276.90010831311,278.211866599198,0.0103127611115106,1.66381081796276,1.74167513847351,-0.738605027642011,9.56371269254831
1.03,4.39593621792062,276.855362076719,278.211866599198,-0.0114849181681547,1.68867241237168,1.76505744457245,-0.599150971598178,9.56374542521896
1.04,4.68581051272329,276.826984054015,278.211866599198,-0.0111476835040362,1.66681200572235,1.72723984718323,-0.592298767860903,9.47391089637184
1.05,4.97569616571454,276.869268569539,278.211866599198,-0.00757347324387503,1.76389766568357,1.80660533905029,-0.602669274212605,9.3505855740414
1.06,5.26556382613639,276.791040608393,278.211866599198,0.103088699170524,1.8021036342797,1.82544839382172,-1.27465289454917,9.25033892692124
1.07,5.55544736666497,276.796247990484,278.211866599198,0.0379501312860162,1.80051014071237,1.78505623340607,-0.901784151785445,9.00636109193043
1.08,5.84532328620101,276.739452677388,278.211866599198,0.0139036624035796,1.78183687574037,1.79294657707214,-0.769481046449558,9.16502116912454
1.09,6.13520230623532,276.758800915795,278.211866599198,-0.0277122049854148,1.9405454047309,1.86047852039337,-0.512914599152284,8.61233121847942
1.1,0.141905910287424,276.738994240883,278.211866599198,0.0466491368928516,1.7878745661331,1.74876928329468,-0.966819817372485,8.8468303850522
1.11,0.431786301479175,276.781549644379,278.211866599198,0.0173904240583218,1.73142786491107,1.71860718727112,-0.809646249314915,9.0047288326155
1.12,0.721665374011778,276.760296119082,278.211866599198,0.0126376154462612,1.56599430695436,1.55317306518555,-0.784853955583455,9.00046961539875
1.13,1.01153763322004,276.843957395392,278.211866599198,-0.0133348746798084,1.67804146894155,1.60401630401611,-0.611843827138971,8.63813070370587
1.14,1.30140511613214,276.906459827382,278.211866599198,-0.0350438247483519,1.68201512046819,1.6651349067688,-0.483466256991339,8.991900942166
1.15,1.59128375830357,276.945390104983,278.211866599198,-0.0693207859297645,1.67631914216978,1.68844938278198,-0.282078900704589,9.15673225481945
1.16,1.88117575949308,276.931773505878,278.211866599198,-0.0355296065575932,1.63973158067389,1.69473612308502,-0.480965761519004,9.38448457875438
1.17,2.17104670062962,276.867637906675,278.211866599198,0.0285514865042177,1.67368117995964,1.7131050825119,-0.859030670063218,9.28933388636345
1.18,2.4609181906997,276.887763094237,278.211866599198,0.0405038012454661,1.61709662699097,1.78183400630951,-0.910171010328295,10.0479455870192
1.19,2.75078870272294,276.835824817828,278.211866599198,0.0587623092905315,1.60122601331774,1.71813631057739,-1.02765799544678,9.76152793939969
1.2,3.04065760245257,276.81537522999,278.211866599198,0.0982108910087176,1.68635563150086,1.74515438079834,-1.27562739711995,9.41373943113555
1.21,3.33052753415321,276.80107529332,278.211866599198,0.0544677669623783,1.70667417348595,1.77246618270874,-1.01264505750097,9.46050417072488
1.22,3.62040599599742,276.789582129915,278.211866599198,-0.0361497591359734,1.84010692047479,1.83274900913239,-0.471291503263957,9.01958632146626
1.23,3.91028526049822,276.734776450708,278.211866599198,-0.0300606589148921,1.79331202426018,1.79791224002838,-0.50068019685644,9.08117700797978
1.24,4.20016644822052,276.774592670545,278.211866599198,-0.0270811747631513,1.83675510837146,1.79715323448181,-0.51037464856337,8.80931905609437
1.25,4.49003412337453,276.736415427043,278.211866599198,-0.038877700861398,1.84618702651585,1.84930634498596,-0.440985382277257,9.07959967188556
1.26,4.77989924350349,276.76092269834,278.211866599198,0.0241195796440097,1.9178240338212,1.84346628189087,-0.8260281726666,8.63488873878867
1.27,5.06978862542333,276.680331142257,278.211866599198,-0.0677205656353216,1.67561587984673,1.66753089427948,-0.278045471410907,9.01644474367665
1.28,5.35966424576232,276.806331848964,278.211866599198,-0.11302079289893,1.67067562193914,1.62000262737274,-0.00924538341519221,8.76645980854628
1.29,5.64954307963742,276.795776382778,278.211866599198,-0.0208725292073804,1.53051016194069,1.52507257461548,-0.556796644240875,9.03627196084763
1.3,5.93941252511496,276.86845252415,278.211866599198,-0.0884038492036882,1.62126146184911,1.61611354351044,-0.157861659432634,9.04770935464333
1.31,6.22927815523383,276.921628587338,278.211866599198,-0.109559357979929,1.63456876224324,1.67851936817169,-0.0373604239919189,9.35897586844476
1.32,0.235962201906098,276.968200788938,278.211866599198,-0.0832149722269806,1.65551370851229,1.74092495441437,-0.212562807155139,9.60764062353642
1.33,0.525842594373351,276.965874087218,278.211866599198,0.0687908352147604,1.57008935555537,1.64328503608704,-1.12669432046819,9.52207105708701
1.34,0.815713023818624,276.857355580233,278.211866599198,0.0401361629419462,1.56437700605682,1.71808874607086,-0.962168978982418,10.011265181587
1.35,1.10559520971824,276.899424402058,278.211866599198,0.0236252021614225,1.68976445913981,1.73905456066132,-0.858933496445285,9.36559707963994
1.36,1.39547793899948,276.815636857361,278.211866599198,-0.00937077659579599,1.61862381773489,1.69904637336731,-0.671998684614349,9.53903193842647
1.37,1.68533358388041,276.825501456316,278.211866599198,0.0197009660765705,1.73541904106954,1.78676772117615,-0.844053931809997,9.39456584740224
