t,theta,omega,r,i_d,i_q,i_q_ref,v_d,v_q
0,0,0,200.405865674661,-2.3172217244317e-24,0,0,0,0
0.01,0.0650797057912306,127.727569138518,200.405865674661,0.240522695514894,7.66225672243372,10,-1.55907678385448,17.7343269798173
0.02,0.25420872780716,200.468153846812,200.405865674661,-0.0108988984265943,0.889661145267358,0.934941172599792,-0.248400575852203,5.77487613273671
0.03,0.463015813873967,199.378649363274,200.405865674661,0.0187630393608038,1.12887378557645,1.18457961082458,-0.435154111267877,5.93390859636407
0.04,0.671844115407871,199.460792113261,200.405865674661,0.00840955730961266,1.04361919938102,1.18935096263885,-0.407532981336555,6.57583922382803
0.05,0.880695302155253,199.486363653217,200.405865674661,0.0667679978935853,1.15942053088927,1.14961099624634,-0.752709263007631,5.70643279491722
0.06,1.08952745711315,199.470191388346,200.405865674661,-0.0155538840427336,1.20591728712047,1.26296126842499,-0.249545591112882,6.17437363728789
0.07,1.29839275307434,199.473480806276,200.405865674661,-0.0597798647462792,1.12194263212559,1.18464946746826,0.0419960456914888,6.26470640148525
0.08,1.50725764373877,199.489264275156,200.405865674661,0.0735916691694527,1.23156502978239,1.23404455184937,-0.761467317684076,5.9190169897553
0.09,1.71612829138126,199.598057130018,200.405865674661,0.119556019278106,1.18173577688555,1.19342374801636,-1.01083501499434,5.99818332697666
0.1,1.92500391117671,199.447237194137,200.405865674661,-0.0116617163718722,1.17018464138075,1.21081864833832,-0.220533992686884,6.1999308902074
0.11,2.13386988865153,199.480203013729,200.405865674661,0.0559404870949493,1.16763035743519,1.24291515350342,-0.626883985382937,6.41323384794004
0.12,2.34274504945932,199.452137669607,200.405865674661,-0.0156731638474413,1.0666619200916,1.09624457359314,-0.166699020589109,6.17178753233236
0.13,2.55161586197358,199.508694184437,200.405865674661,0.00562248775047813,1.21534569067645,1.20778799057007,-0.292981690200956,5.95618072718471
0.14,2.76050999392349,199.533484190559,200.405865674661,-0.0262127744678236,1.13640545611186,1.16030180454254,-0.121806310584704,6.12709723223006
0.15,2.96938735422345,199.437034902918,200.405865674661,0.0505886657665741,1.15320710921811,1.15836560726166,-0.557307629335531,6.03786107507325
0.16,3.17825471347811,199.512763956437,200.405865674661,0.00247621141413779,1.21342662701427,1.21692931652069,-0.261964347107712,6.02951042068216
0.17,3.38714227325294,199.523527126999,200.405865674661,-0.0230470218328483,1.16987382638541,1.17411780357361,-0.13202845102828,6.0508927610022
0.18,3.59602960449971,199.43595607506,200.405865674661,0.0385653462759805,1.12779337365859,1.10750389099121,-0.502513042424632,5.87938564595712
0.19,3.80490566109051,199.522350906966,200.405865674661,0.0678608501253781,1.15509576450154,1.1711939573288,-0.669564384794731,6.10166408970424
0.2,4.01378747540207,199.568519710949,200.405865674661,0.00838720137939472,1.21098712039797,1.19881880283356,-0.327982842325131,5.94828304524985
0.21,4.22265680777865,199.482222655924,200.405865674661,0.0900723065505207,1.18928151217967,1.1948276758194,-0.827660222399533,6.05263196062497
0.22,4.43154824301227,199.555910237669,200.405865674661,0.0496317933482655,1.07415607055163,1.13684046268463,-0.580989919409724,6.40372772475782
0.23,4.64042672223406,199.43759631263,200.405865674661,-0.047121591609406,1.16706952131161,1.16123604774475,0.0252177632372932,5.98441376269081
0.24,4.84930619515557,199.503306871578,200.405865674661,0.0852697975654457,1.05334781022068,1.1314549446106,-0.757389924282641,6.48475584682608
0.25,5.05818997286207,199.440085482472,200.405865674661,0.0677197860076721,1.14012947198341,1.13184475898743,-0.631657023578784,5.9844618777888
0.26,5.2670597820599,199.456236415894,200.405865674661,-0.00325323227212004,1.17546074362423,1.17936551570892,-0.231160249999912,6.05701563778418
0.27,5.47594848452084,199.603681286357,200.405865674661,-0.0325610869308089,1.176880003959,1.19836366176605,-0.0906892378574509,6.17399237551814
0.28,5.68483126551314,199.495589859618,200.405865674661,0.0105019181803471,1.19353590766068,1.16664040088654,-0.348878211524787,5.87116735000545
0.29,5.8937106627102,199.47555018249,200.405865674661,0.0299969170470865,1.09073696624939,1.17981231212616,-0.456438071184422,6.56261267334011
0.3,6.10260228723675,199.483591751903,200.405865674661,-0.103665558227227,1.12955317059872,1.13930428028107,0.338791584431209,6.09226154951734
0.31,0.0282973019193369,199.496715138553,200.405865674661,0.0150362665974185,1.30483977537513,1.26997542381287,-0.387303964785698,5.80275731962931
0.32,0.237177749559248,199.538333279305,200.405865674661,0.0103832375823163,1.09197043649239,1.10327363014221,-0.342222524921003,6.10424139950983
0.33,0.446056314490774,199.497281315346,200.405865674661,-0.0517921004870742,1.2050232570716,1.21540427207947,0.0532233267509534,6.09569800669629
0.34,0.654939314341592,199.521789324286,200.405865674661,0.0408125595658935,1.09654566867109,1.17738032341003,-0.526737223013362,6.50463203413889
0.35,0.863828690663815,199.507072883637,200.405865674661,0.02215814925579,1.17282304899896,1.18919718265533,-0.38902055588803,6.1309184531529
0.36,1.0726967362618,199.460736317591,200.405865674661,-0.0518553631976123,1.18636011578155,1.18942904472351,0.0637276791690369,6.05393409340643
0.37,1.28158707886994,199.494281117767,200.405865674661,-0.0729359542769629,1.02584679579534,1.11933732032776,0.14954092034187,6.60127586085544
0.38,1.49047225831418,199.421872575789,200.405865674661,0.0453632475696866,1.15493429422898,1.16746747493744,-0.544879230176567,6.10832658568825
0.39,1.69935027008352,199.46128418302,200.405865674661,0.0315365924701279,1.10910168279721,1.15058135986328,-0.453809303537314,6.27345287994684
0.4,1.90823672577131,199.483905207883,200.405865674661,-0.108578620731119,1.1054070997545,1.12308120727539,0.36315158625862,6.14824394921433
0.41,2.11711847421101,199.455642675771,200.405865674661,0.0724031052738162,1.18876733208945,1.21669363975525,-0.708880898636873,6.18778147355638
0.42,2.32599841788316,199.53311245584,200.405865674661,-0.0214549758623526,1.04268757229207,1.13332331180573,-0.1394001243907,6.58174282128827
0.43,2.53487732543688,199.435829144501,200.405865674661,-0.0371239196410141,1.21854160092087,1.21998012065887,-0.0480509904047851,6.05084944649778
0.44,2.74376544303716,199.492763515994,200.405865674661,0.0358434280887994,1.08057152082571,1.11228775978088,-0.505626089499192,6.2091000623529
0.45,2.95265213691895,199.462460054087,200.405865674661,0.0522315332654657,1.1113474481273,1.11163878440857,-0.608416563147843,6.03612314779551
0.46,3.16153048035754,199.526376365622,200.405865674661,-0.00548204627825874,1.22604242851979,1.2071932554245,-0.224968806709678,5.90626093666039
0.47,3.37041658085247,199.510613040328,200.405865674661,-0.016311876804026,1.06355642115091,1.10634350776672,-0.202820247297249,6.28240848323954
0.48,3.57930388270309,199.494079865463,200.405865674661,0.0821489412165005,1.18928129195089,1.16741383075714,-0.756505581915494,5.88401749488238
0.49,3.78816827061561,199.500135867271,200.405865674661,-0.034668768673924,1.24468926950092,1.24325370788574,-0.0492855572404318,6.01534034328427
0.5,3.99705683249966,199.437059311532,200.405865674661,-0.0128804728510339,1.12865017301741,1.15925073623657,-0.196224582023791,6.22220898261357
0.51,4.205935377617,199.510097892225,200.405865674661,0.0309828156440923,1.27499132895045,1.26232552528381,-0.451378148440661,5.94669104288071
0.52,4.41482037046092,199.608070877185,200.405865674661,-0.0153836153741008,1.16695964311935,1.20095086097717,-0.191456038910751,6.22683470307305
0.53,4.62370205978694,199.522567137709,200.405865674661,-0.0886369230502736,1.20685625707576,1.19494962692261,0.261084878424737,5.96016037542487
0.54,4.83258576018438,199.490438393925,200.405865674661,0.0174194995198024,1.14460532072356,1.21367692947388,-0.405628293710908,6.42363685894646
0.55,5.04147065092749,199.504677921745,200.405865674661,0.0188974447786281,1.13131736775701,1.15049564838409,-0.39163736065608,6.14320307351427
0.56,5.25034031435862,199.49855733728,200.405865674661,-0.00238504593592592,1.2157322946646,1.21018850803375,-0.261158375354831,5.99502130392849
0.57,5.45922642609774,199.538670064132,200.405865674661,-0.0219994934939298,1.02454886551415,1.13618993759155,-0.17073416778011,6.69206566759101
0.58,5.66811447484625,199.441497051406,200.405865674661,0.0634335717048036,1.14668188271885,1.15448796749115,-0.661841248562575,6.06926006601394
0.59,5.87699133605287,199.460803851603,200.405865674661,0.021499910077144,1.13707741401997,1.11540281772614,-0.40633221374353,5.87401525464961
0.6,6.08587177061212,199.476477533212,200.405865674661,-0.0842761758282629,1.11245556683963,1.13769817352295,0.207825085293446,6.18610102189023
0.61,0.0115587493964711,199.443384031757,200.405865674661,0.0882425498729569,1.19020008774642,1.20999228954315,-0.805285965213566,6.15449184277777
0.62,0.220441326546993,199.594290819547,200.405865674661,0.00182494366417873,1.18702851563315,1.22777104377747,-0.31104546843099,6.2772066538183
0.63,0.429327023038162,199.443760980053,200.405865674661,-0.0310585188797978,1.13782381599763,1.12328541278839,-0.113180076003695,5.95109840753062
0.64,0.638208814135814,199.485194784071,200.405865674661,0.120462472922271,1.18681592528568,1.207932472229,-1.04242804429625,6.14064751842659
0.65,0.847098710342966,199.500631056125,200.405865674661,-0.017697078343346,1.02921141988637,1.10134649276733,-0.214244475188126,6.45931674054167
0.66,1.05597854341985,199.480843360574,200.405865674661,0.0915132319231292,1.28091473557913,1.24516105651855,-0.858799134333257,5.79970697867954
0.67,1.2648615600365,199.473133080415,200.405865674661,-0.0129946884465861,1.00521568837206,1.14399516582489,-0.257781016959657,6.84951053277198
0.68,1.47374846453167,199.523177355755,200.405865674661,0.0482534538633397,1.15710953056902,1.11170744895935,-0.594102417419577,5.75021455814829
0.69,1.68261520481708,199.491404573694,200.405865674661,0.0393564615576674,1.19280569339872,1.17813003063202,-0.527367843236692,5.93337009915582
0.7,1.89150257610597,199.441756625902,200.405865674661,-0.0681753457584606,1.04399959837661,1.10512495040894,0.0849754283954053,6.40474901717039
0.71,2.10038358349712,199.424136968344,200.405865674661,0.0271351564724426,1.13011318719336,1.12543308734894,-0.454745286458809,5.99597071778728
0.72,2.3092678579559,199.550856160388,200.405865674661,0.0769447188761535,1.08130582993731,1.1452442407608,-0.728328223390508,6.40069918288015
0.73,2.51815090160045,199.538940494985,200.405865674661,-0.0611964716743966,1.18722290017218,1.22350025177002,0.092918543125605,6.25158965793837
0.74,2.72702352513445,199.479550132283,200.405865674661,0.108469869712993,1.18331953875483,1.18301486968994,-0.950802402631554,6.01994654495844
0.75,2.93591832597744,199.401243707367,200.405865674661,0.0461689408309683,0.961433296682274,1.00136315822601,-0.556911580218669,6.26641374170359
0.76,3.1447879409238,199.515426531297,200.405865674661,0.0310457566480941,1.23338149207876,1.21441721916199,-0.465749557907622,5.92009438453094
0.77,3.35367462467914,199.541118207848,200.405865674661,0.0242858066366019,1.11516509044956,1.1686247587204,-0.443729281327686,6.34431275177649
0.78,3.56256817000435,199.506322076523,200.405865674661,0.0939385251492481,1.17398623002436,1.12856841087341,-0.846925487249879,5.74798322627488
0.79,3.77143846549025,199.482238861597,200.405865674661,-0.00528039234284988,1.16828791587426,1.15043473243713,-0.203364748643712,5.91139586528359
0.8,3.98032822120237,199.601993334522,200.405865674661,-0.116549734786641,1.11930245466795,1.20753037929535,0.42363647331311,6.55881399924939
0.81,4.18921122511048,199.489331283248,200.405865674661,0.0944985596952312,1.20176233334801,1.20615875720978,-0.846401440866306,6.04933027056499
0.82,4.39808887262878,199.520303110139,200.405865674661,0.0255802698793611,1.10201287450588,1.17321610450745,-0.43296917895359,6.45068576899298
0.83,4.60697705695966,199.435163409911,200.405865674661,-0.0940865859210651,1.12303508952832,1.17227363586426,0.269278328991102,6.33003234589418
0.84,4.81585556497272,199.485043263515,200.405865674661,0.0530669344574987,1.20072727721031,1.19743692874908,-0.624878230469622,5.9980154136799
0.85,5.0247484337817,199.517906426518,200.405865674661,0.0257444410573801,0.999844843878135,1.03100621700287,-0.433029324031496,6.21127309271906
0.86,5.2336291907109,199.498784814276,200.405865674661,-0.10941288683324,1.20405079628659,1.21158576011658,0.372191537232065,6.06450951019835
0.87,5.44251652410371,199.471243580198,200.405865674661,0.120954383155117,1.12058961499862,1.16479969024658,-1.03591356760331,6.26081356283402
0.88,5.65139295270857,199.434820518961,200.405865674661,0.0261292342622474,1.15145647208251,1.19274079799652,-0.455323361478689,6.27400826792978
0.89,5.86026190412652,199.514109150367,200.405865674661,-0.0275467846400064,1.29188452196316,1.27892351150513,-0.141562642748322,5.94542123649765
0.9,6.06914449425095,199.479628201203,200.405865674661,-0.0593487308262354,1.01060054230439,1.12620055675507,0.0449394174306621,6.73425642616794
0.91,6.2780214775374,199.452620792539,200.405865674661,0.0722085698786767,1.18737871407214,1.20662462711334,-0.722753677901348,6.16165512264178
0.92,0.203720598531248,199.51298047887,200.405865674661,-0.0308502440571062,1.10285131539379,1.10125827789307,-0.121678741154104,6.01998971388239
0.93,0.412608407403283,199.47613036473,200.405865674661,-0.0717371703906023,1.07037209472726,1.13075757026672,0.135423225313502,6.40522159119615
0.94,0.621489602385825,199.458413603283,200.405865674661,0.113238947140494,1.1779319162595,1.18986320495605,-0.986375239348178,6.0866217423058
0.95,0.830370564716358,199.486826122317,200.405865674661,-0.00964720170816413,0.978464938038165,1.0675595998764,-0.249272411029705,6.56800104359859
0.96,1.03924995347386,199.475776569211,200.405865674661,-0.0230641451771409,1.29236210818514,1.24278700351715,-0.17868928272525,5.73792548610107
0.97,1.24813446797712,199.507380974576,200.405865674661,0.00674703402987786,1.10683142442541,1.16013920307159,-0.356799646628124,6.33919824966575
0.98,1.45702406116175,199.527928065192,200.405865674661,-0.00941436316369093,1.15934097954996,1.18819320201874,-0.249284357347154,6.20135518676211
0.99,1.66589746979696,199.439537559887,200.405865674661,0.0236096284126228,1.14224808794084,1.17914342880249,-0.469242308654653,6.24284572294888
1,1.87477850747885,199.471564980198,200.405865674661,-0.0403539697307628,1.06032681290837,1.13782250881195,-0.105965533513052,6.50090171254508
1.01,2.08367466364974,199.479579081987,200.405865674661,-0.0342019504300539,1.27763809358618,1.21589767932892,-0.111260206929256,5.64302366101496
1.02,2.29255523517796,199.487235614932,200.405865674661,8.71565270861852e-05,1.09980640535746,1.13977634906769,-0.308129405559535,6.2441610001441
1.03,2.50143481550266,199.536962884004,200.405865674661,-0.0370936189043866,1.2014865558019,1.1778119802475,-0.0757499641331688,5.89093816703732
1.04,2.71031911777158,199.463718938068,200.405865674661,-0.0716315530614651,1.21343910488979,1.14121091365814,0.130057723909135,5.57923594062155
1.05,2.91919487604488,199.533084182846,200.405865674661,-0.00230032722038388,1.1115607729883,1.1454850435257,-0.263690680647246,6.23340925818845
1.06,3.1280826319959,199.454353947677,200.405865674661,-0.0834224505782103,1.15277811960618,1.15095615386963,0.246353818336708,6.01626448891149
1.07,3.33696773446678,199.496594956049,200.405865674661,0.131199127672764,1.16222019038846,1.21489441394806,-1.08371715327683,6.31739083833828
1.08,3.54586636174635,199.472120650189,200.405865674661,0.0125391569173057,1.08096558834822,1.08933877944946,-0.380254644791281,6.054538723158
1.09,3.75473690859846,199.435345818191,200.405865674661,-0.0200839153844916,1.14362833861274,1.13489472866058,-0.17703659301505,5.95164462571203
1.1,3.96361388495777,199.489028062066,200.405865674661,0.0167012789075843,1.03969825444505,1.14691483974457,-0.424962774888958,6.65623421169349
1.11,4.1724880835113,199.43451629753,200.405865674661,0.0302123103940392,1.23088522657313,1.25586116313934,-0.490106670139393,6.18656678993764
1.12,4.38136420066568,199.514512525243,200.405865674661,-0.0310111376938591,1.18200037643392,1.23773300647736,-0.115032933542623,6.36567679395818
1.13,4.5902560357804,199.484094216289,200.405865674661,-0.0572070087899182,1.1128509314553,1.13507664203644,0.0333733359373076,6.17357120907146
1.14,4.79914130812921,199.44006819478,200.405865674661,0.0906949885899991,1.16656183777775,1.16204655170441,-0.863860683613418,5.99021083930446
1.15,5.00802574588167,199.535869121399,200.405865674661,-0.012279140123213,1.11725523357434,1.14978992938995,-0.231404899764564,6.21011626460671
1.16,5.21690960510917,199.514154413829,200.405865674661,-0.0127798931426062,1.19048048789656,1.16655254364014,-0.221400232174027,5.87566604360021
1.17,5.4257813726898,199.483588297113,200.405865674661,0.11833470728903,1.18382214121758,1.20257830619812,-1.01375005351848,6.12610083426159
1.18,5.63467669856876,199.492284249444,200.405865674661,0.0129188192460483,1.06167270269036,1.02519476413727,-0.404970427988554,5.7987598193384
1.19,5.84354516537739,199.446877261869,200.405865674661,0.0186410646349805,1.18340397012864,1.19816386699677,-0.430969306736877,6.11311790756997
1.2,6.05242652467463,199.510894637138,200.405865674661,-0.042558435577061,1.05778345307991,1.17197358608246,-0.0939499029630276,6.71004671877832
1.21,6.2613181778187,199.433615533801,200.405865674661,-0.0519205128423847,1.18822183748204,1.1288458108902,-0.00070622875120474,5.67016279237974
1.22,0.187007639168019,199.516711851236,200.405865674661,0.0288427259396589,1.16948506442542,1.15387392044067,-0.506956888484419,5.92689827602843
1.23,0.395899968528397,199.461923641295,200.405865674661,-0.0565195630242403,1.04759106122893,1.09173130989075,-0.0169126001566336,6.29114019441123
1.24,0.604787826346328,199.476490728319,200.405865674661,0.017743741394769,1.19662177540607,1.18096256256104,-0.458175893736383,5.90640521782828
1.25,0.813660088548197,199.533990695101,200.405865674661,0.100639554203423,1.07086095413359,1.14718449115753,-0.928000313378654,6.47524327642379
1.26,1.02254235635808,199.428949368143,200.405865674661,-0.0470516400289916,1.13593424596989,1.16929912567139,-0.0289623847979608,6.2369298977348
1.27,1.23142154347953,199.453384244969,200.405865674661,0.027636480859882,1.1247606637338,1.0859512090683,-0.464094072982365,5.78695599675331
1.28,1.44029878008054,199.56848936327,200.405865674661,-0.0294062582161722,1.13932154227862,1.16922068595886,-0.10328462216257,6.228772033522
1.29,1.64918020688824,199.454761566323,200.405865674661,-0.0562658998773197,1.18634574795352,1.17636287212372,0.0705073230494991,5.97397448319266
1.3,1.8580665880285,199.546682331766,200.405865674661,0.0996739826307826,1.09319033496635,1.21681487560272,-0.886367601243031,6.76969552194728
1.31,2.06695865026645,199.468181816877,200.405865674661,-0.0735941265240106,1.19109107686743,1.14886856079102,0.16745972106648,5.77619796017671
1.32,2.27583389368348,199.476559896125,200.405865674661,0.00477506987495074,1.16648064260324,1.15519773960114,-0.305182676501376,5.95158620471973
1.33,2.48472587790176,199.479318495633,200.405865674661,-0.0364204340185768,0.974073305410611,1.05324137210846,-0.0932918332563745,6.49676503157237
1.34,2.69361027610827,199.491182391405,200.405865674661,0.106010994901476,1.19399156843397,1.17856025695801,-0.960184331042242,5.90928323193102
1.35,2.90248036653751,199.491166787538,200.405865674661,0.0454311359902481,1.0873171981193,1.16167426109314,-0.606068953548577,6.46191109183912
1.36,3.11136868045536,199.483681721075,200.405865674661,-0.0892451236164541,1.13299948678717,1.14478802680969,0.233215026040484,6.10084644804643
1.37,3.32024542296752,199.467663572915,200.405865674661,0.0682122517956136,1.21293170782701,1.24921786785126,-0.70045099651866,6.23533189769506
