t,theta,omega,r,i_d,i_q,i_q_ref,v_d,v_q
0,0,0,125.204722288371,-2.21276718192849e-24,0,0,0,0
0.01,0.061874785361029,121.596525234867,125.204722288371,0.123812207577102,7.5129542384632,10,-0.872253866222668,18.747016788776
0.02,0.192542508783296,124.518893220871,125.204722288371,-0.0165664138401725,0.72633925086326,0.669883668422699,-0.0618534690360587,3.33148838578399
0.03,0.323014527331077,124.565909164518,125.204722288371,0.0266831596853053,0.820048459654255,0.786381900310516,-0.322735736769404,3.45843159018191
0.04,0.453474488667028,124.593145765791,125.204722288371,0.00343196979258033,0.857928613781021,0.819650590419769,-0.148310616052008,3.44242592037358
0.05,0.583947595538344,124.567324370513,125.204722288371,-0.0545283815650082,0.84080543057092,0.834909319877625,0.205263943024273,3.63331163875945
0.06,0.714411110406297,124.584747869412,125.204722288371,-0.025751222432672,0.805694814506446,0.785433948040009,0.0254560428189467,3.55539956437732
0.07,0.844879137196184,124.607733085908,125.204722288371,-0.0875512484551298,0.677578341463868,0.740926742553711,0.40761859048676,4.05356798766438
0.08,0.975339635925032,124.583848506743,125.204722288371,-0.0257637053555093,0.66652314309592,0.733794450759888,0.0199496066885041,4.07261561603643
0.09,1.10580189706777,124.590497668498,125.204722288371,0.0110876721984243,0.712421735890281,0.737592339515686,-0.192784055797416,3.81100654701747
0.1,1.23626628317834,124.552351389777,125.204722288371,0.0703262181801241,0.777502424071035,0.723131835460663,-0.560875319547546,3.32711186325176
0.11,1.36673368577765,124.592726008087,125.204722288371,0.0539157347528715,0.797677957197257,0.717760980129242,-0.457155226879962,3.16911692755204
0.12,1.49720555178022,124.583473659248,125.204722288371,0.0828962684018636,0.814055657145984,0.758696556091309,-0.618387971583597,3.31402440637406
0.13,1.62766392971348,124.52703509742,125.204722288371,-0.0813608105025417,0.765951007568226,0.723651707172394,0.387481144369268,3.41131796836309
0.14,1.75813164500958,124.606063372984,125.204722288371,0.0102719328574053,0.811371581484498,0.801160454750061,-0.167527860734486,3.6039635518529
0.15,1.88860192451906,124.591198312801,125.204722288371,-0.0483916506782285,0.650824371145111,0.678087055683136,0.158477100931191,3.82084948962887
0.16,2.01906346279841,124.612499805401,125.204722288371,-0.0230143612048013,0.781981908540829,0.744225263595581,0.0128438238888178,3.42341637957352
0.17,2.14952330382085,124.567169854618,125.204722288371,0.0274335899794212,0.705784823589869,0.730566561222076,-0.302217665041435,3.79277440916514
0.18,2.2799890331815,124.535653718664,125.204722288371,0.0445821540367506,0.780865913013539,0.733122289180756,-0.387660455374295,3.35425749982728
0.19,2.41046022044413,124.616412642753,125.204722288371,0.079562413754016,0.83152752473759,0.79040801525116,-0.607253978087878,3.38600268567717
0.2,2.54093266135035,124.606423645333,125.204722288371,-0.0691585121645161,0.856781618545482,0.805655419826508,0.288956128855633,3.32102683999491
0.21,2.67140035366357,124.498998827859,125.204722288371,-0.0594493915934938,0.803200071124418,0.80191045999527,0.250883830682707,3.62738267234727
0.22,2.80186168105045,124.593035477604,125.204722288371,-0.0867674009866296,0.789864766731366,0.776497304439545,0.429123769142496,3.56615036353695
0.23,2.93232457884718,124.571581587836,125.204722288371,-0.0888735222219925,0.680511162159382,0.690877795219421,0.44394900373826,3.71012572512635
0.24,3.06278272273961,124.623209810154,125.204722288371,-0.0215335168437083,0.746047854980897,0.767347872257233,0.0312789542408913,3.77568865538706
0.25,3.19324392372365,124.610741077835,125.204722288371,0.0409182514128571,0.694669926874548,0.722185790538788,-0.317581306669787,3.80808737031022
0.26,3.32371179468252,124.603707850079,125.204722288371,0.0560737887561614,0.854752418654218,0.81939822435379,-0.404436059587942,3.42498623368642
0.27,3.45417357111597,124.596812919809,125.204722288371,0.0291776756149102,0.830874798608715,0.798851609230042,-0.245809338423058,3.44978998873793
0.28,3.58464969382277,124.567350553906,125.204722288371,0.0318343786397185,0.805158529670093,0.753791093826294,-0.282955206067188,3.32323417327024
0.29,3.71511908295477,124.545865369708,125.204722288371,-0.062991050141646,0.770869688093867,0.743621349334717,0.285123772425078,3.46978764552066
0.3,3.8455770302626,124.653033480074,125.204722288371,0.0224986985163328,0.819077820020769,0.754307091236115,-0.232813532439275,3.25558004482964
0.31,3.97604120875457,124.597998012895,125.204722288371,-0.0801970384518387,0.731661050121671,0.719092845916748,0.364390512062553,3.56384851901686
0.32,4.10650442411079,124.643293041361,125.204722288371,0.013280851705291,0.795082828875494,0.766295254230499,-0.190836796045582,3.45544156096942
0.33,4.23697289803488,124.591683999011,125.204722288371,0.0788295706520537,0.737251391603385,0.719416856765747,-0.58901350941049,3.51367048198648
0.34,4.36743159246446,124.616503444852,125.204722288371,-0.0385440359600755,0.845932383033344,0.80292147397995,0.120559954258766,3.37269765447739
0.35,4.49790848727042,124.56833889688,125.204722288371,0.0439131072655645,0.807219896223207,0.750668227672577,-0.393644102131569,3.27916403687561
0.36,4.62838078593418,124.558644904157,125.204722288371,-0.0312132107341833,0.80148485082972,0.749125182628632,0.0658754434538584,3.30249169560066
0.37,4.75884622749924,124.641425394121,125.204722288371,-0.0520095310770883,0.818472424929004,0.788299381732941,0.194080015469168,3.44236342238779
0.38,4.88930859143385,124.582244938555,125.204722288371,-0.0923148295906011,0.770491906242465,0.770315945148468,0.424166591532126,3.63160608924165
0.39,5.01977606062542,124.611174064412,125.204722288371,-0.0404000737690883,0.701215988863982,0.718266010284424,0.123235408671045,3.72398787131792
0.4,5.15023035062374,124.600332191503,125.204722288371,0.0791715221164846,0.751587306581417,0.780779719352722,-0.600028424390048,3.80104365513261
0.41,5.28068913519161,124.583723554972,125.204722288371,0.109492154977146,0.754917497760946,0.813393592834473,-0.762549632279836,3.98302600652605
0.42,5.41115318572051,124.587979773744,125.204722288371,0.023307211979064,0.805744316554825,0.733385920524597,-0.25184920538398,3.20141893609493
0.43,5.54161472818996,124.51809267756,125.204722288371,-0.0248318748652338,0.782152887253636,0.735896587371826,0.0626875068281872,3.37077223347669
0.44,5.67208757669431,124.534867534955,125.204722288371,-0.0435887640279751,0.784933267114213,0.738689422607422,0.163985227624344,3.36844847593523
0.45,5.80256078946203,124.531072243567,125.204722288371,-0.0076684569238992,0.771142040189559,0.729434370994568,-0.0637693154236263,3.39014617060261
0.46,5.93302933025856,124.540139737371,125.204722288371,-0.0450346297897626,0.746561301253536,0.707803785800934,0.165528860190598,3.40360678068016
0.47,6.0634858233092,124.616565887452,125.204722288371,-0.0666856895534212,0.701596347569324,0.7148197889328,0.282148146389936,3.71932130341707
0.48,6.19394422733637,124.65334237382,125.204722288371,0.014029622935966,0.747173449298852,0.785756886005402,-0.175804535789212,3.86543786053342
0.49,0.0412245827218261,124.60714738448,125.204722288371,0.00286470873535169,0.740780578385155,0.770596325397491,-0.0933392669745504,3.80840901132926
0.5,0.171686838500634,124.529747826743,125.204722288371,-5.59921318084577e-05,0.791226643493725,0.743557095527649,-0.0640163433086851,3.34961701895839
0.51,0.302156094717028,124.559220011879,125.204722288371,0.0200462685034801,0.805707823531263,0.778124272823334,-0.185913002021061,3.47243185822823
0.52,0.432627686870419,124.594167424952,125.204722288371,-0.0807223634103331,0.803851995297837,0.744253695011139,0.426116927265839,3.28033608187375
0.53,0.563100126371821,124.63915797455,125.204722288371,-0.0138156088707845,0.806356258988147,0.747294962406158,0.00889527470571801,3.27405133272099
0.54,0.693559032323106,124.56312229111,125.204722288371,-0.0766696006638556,0.774629775501792,0.793447315692902,0.372406690940802,3.74802003307438
0.55,0.824026335249419,124.539130363398,125.204722288371,-0.0755957526689208,0.673428090762249,0.700657725334167,0.386482706656184,3.78627161732962
0.56,0.954488197939281,124.580879740337,125.204722288371,0.0168695458945056,0.735022356366533,0.789966106414795,-0.194225777727711,3.94411322561717
0.57,1.08494866615961,124.580731661237,125.204722288371,0.0959567244005373,0.72172587655816,0.74544769525528,-0.643182296531198,3.76197428054971
0.58,1.21541282332994,124.549983880569,125.204722288371,0.0759764336602948,0.777844204638552,0.708517074584961,-0.548748509244889,3.20923281331087
0.59,1.34588470379364,124.535141444653,125.204722288371,-0.0362136440471179,0.802785922900201,0.774610102176666,0.111390750089196,3.45322788524552
0.6,1.47635989641451,124.534289083823,125.204722288371,-0.00928752707314007,0.785671285449752,0.759810864925385,-0.0545617101642979,3.46113585780932
0.61,1.60681056116182,124.524443787167,125.204722288371,-0.0731348697027384,0.752814730106696,0.720768809318542,0.321772919376979,3.44949183236368
0.62,1.73728150856951,124.601505758714,125.204722288371,-0.0967993369437724,0.65450817931018,0.736874461174011,0.471456246287899,4.1248765458087
0.63,1.86774089095172,124.598868138386,125.204722288371,-0.0235323902155154,0.733408852427545,0.758975863456726,0.0165551555853433,3.78033587000997
0.64,1.99820124155431,124.554891926978,125.204722288371,0.0626297573241249,0.674821341266099,0.735549926757812,-0.483959226254411,3.9881449708174
0.65,2.1286683672847,124.556433241129,125.204722288371,-0.0444670217534626,0.712166567578948,0.716064751148224,0.151391014165602,3.64026002088513
0.66,2.25913341992124,124.544179118403,125.204722288371,0.0509131861385083,0.803573928661421,0.774321436882019,-0.412333342863987,3.44903996417222
0.67,2.38959937102691,124.528915866755,125.204722288371,0.0229903225326603,0.801249847806943,0.779304981231689,-0.232038345252021,3.50192440992878
0.68,2.52006257879987,124.590052698441,125.204722288371,-0.0378001396640898,0.800405968912904,0.762371718883514,0.116126861231513,3.4211046238518
0.69,2.65053279193598,124.562912949534,125.204722288371,0.0226048535191962,0.78503065269869,0.74255895614624,-0.240117453644904,3.38873669016255
0.7,2.78100677232714,124.588499913505,125.204722288371,-0.00167203202204369,0.67187202903556,0.706260681152344,-0.110200297193078,3.82897944416782
0.71,2.91146395273652,124.613038475818,125.204722288371,0.0608912462841602,0.691683719404259,0.740048825740814,-0.491600840028595,3.91123068946545
0.72,3.04192170523884,124.577192963304,125.204722288371,0.0796560823172239,0.7238244035466,0.697020888328552,-0.611333952772371,3.46509082391735
0.73,3.17238837696444,124.595409260433,125.204722288371,0.0569569420355917,0.783256392077288,0.812051296234131,-0.4683932221704,3.79928726635539
0.74,3.30284869398307,124.541568567578,125.204722288371,0.0814636478623741,0.84045363188017,0.83251541852951,-0.625226574474171,3.59145199730943
0.75,3.43330900717845,124.593481320101,125.204722288371,-0.0727879653785324,0.850043173051443,0.812838315963745,0.291378012617874,3.43450935477032
0.76,3.56378790093721,124.546428081379,125.204722288371,0.0335561873753261,0.756548210275174,0.713205933570862,-0.342753239705051,3.38426960665168
0.77,3.69424954103598,124.603855863528,125.204722288371,-0.0495381338974107,0.832983367485128,0.803157985210419,0.149383505106189,3.47053887142485
0.78,3.82471578076373,124.604535454778,125.204722288371,-0.0860431474549906,0.728325315171318,0.721185624599457,0.374550989852712,3.59905689140982
0.79,3.95517448167896,124.628046330786,125.204722288371,0.0676822428044245,0.738427789236733,0.734253883361816,-0.550648895809386,3.61265636124343
0.8,4.08563618887239,124.640973994687,125.204722288371,0.0219106348915524,0.741798594346517,0.785792231559753,-0.244944596673924,3.89846145147933
0.81,4.21611192413292,124.623072748072,125.204722288371,-0.0193877191504892,0.8436253472249,0.784226536750793,6.1453603318759e-05,3.26374627859369
0.82,4.34658271241493,124.582038152852,125.204722288371,-0.0170553343942949,0.87425483931731,0.802037119865417,-0.0141712017398743,3.18381730153448
0.83,4.47704871316025,124.565811810753,125.204722288371,-0.075000936991004,0.851106308166447,0.776804566383362,0.352091305865127,3.17367489250001
0.84,4.60750322768601,124.586715390349,125.204722288371,-0.0217555593355748,0.807482342418621,0.75626927614212,0.0425232546265045,3.33596406948191
0.85,4.73796971925084,124.542611686123,125.204722288371,-0.0355889000404864,0.766454026505993,0.733780562877655,0.124950010065221,3.4455743536891
0.86,4.86843776109214,124.584790806682,125.204722288371,-0.0852367188164472,0.704192572776984,0.743506491184235,0.400937188617996,3.86621543927403
0.87,4.99889801466033,124.563148438755,125.204722288371,0.0047883803987856,0.619764663350933,0.643987119197845,-0.107721939614498,3.76924211691044
0.88,5.12935584318638,124.596116765696,125.204722288371,0.110381146295711,0.812104309010825,0.801631689071655,-0.755367523150228,3.56497281260437
0.89,5.25981494977223,124.563066577252,125.204722288371,-0.000621790047256709,0.803045874294299,0.748486518859863,-0.0816071334919874,3.30816194873106
0.9,5.39027601413311,124.560045632835,125.204722288371,0.0885332411479007,0.842784857655507,0.815629720687866,-0.615803661798312,3.48711006092304
0.91,5.52074009449364,124.557213500632,125.204722288371,-0.0732945665940771,0.797514664449314,0.756906569004059,0.369847206607154,3.41530751983934
0.92,5.65121005288881,124.581585159982,125.204722288371,0.0031089412944538,0.822001148452393,0.771612048149109,-0.0835502689153232,3.35514333260561
0.93,5.78167110142719,124.649382115623,125.204722288371,-0.113202477823048,0.777650049798988,0.778582811355591,0.595353583154459,3.66922948350611
0.94,5.91213466534898,124.6948777071,125.204722288371,0.0378031021860107,0.744454045913606,0.796811282634735,-0.315608900139095,3.96931160623511
0.95,6.04259946435014,124.553487294951,125.204722288371,0.0034486144639682,0.706094304576325,0.746342182159424,-0.12780783037194,3.88510307355021
0.96,6.17306390614054,124.597267408022,125.204722288371,-0.0119691890996929,0.820606845066128,0.757874727249146,-0.0085869092873937,3.2616690016086
0.97,0.0203413398080006,124.551826095248,125.204722288371,-0.00564490245287075,0.818794967251071,0.788851201534271,-0.0398237269390333,3.46409010225092
0.98,0.150805878274538,124.600430648673,125.204722288371,-0.0323241115422637,0.857409214990571,0.810478389263153,0.140560981250161,3.3714854342046
0.99,0.281272508921344,124.584535328044,125.204722288371,-0.0595070980679543,0.791515255187663,0.75370866060257,0.299261231332652,3.43359972564013
1,0.411737011157625,124.588574899392,125.204722288371,-0.0868994983263772,0.793367657399013,0.751747846603394,0.471968886529197,3.41297661184814
1.01,0.542202063962174,124.599124524021,125.204722288371,-0.0536042068787402,0.751357923308747,0.714670538902283,0.258997129332975,3.4402190435537
1.02,0.672664028790932,124.656874199756,125.204722288371,-0.0231223147425548,0.759269298727138,0.787391662597656,0.0260968981265068,3.81966267761443
1.03,0.803129071124754,124.495683915563,125.204722288371,0.0974537989505171,0.69780922498267,0.700462341308594,-0.677882032542937,3.65644363313748
1.04,0.933598982494196,124.630506371354,125.204722288371,0.0331984261794913,0.831376276688315,0.772291541099548,-0.294916134760893,3.27552346173683
1.05,1.06406331595813,124.580137090536,125.204722288371,-0.0165680430491782,0.804339607319147,0.721709489822388,0.00128139857642587,3.1405844234918
1.06,1.19453676827579,124.533279447704,125.204722288371,-0.100003838410473,0.734480855403079,0.725812196731567,0.530237112558102,3.58138163787912
1.07,1.32500373415841,124.629023603796,125.204722288371,-0.038371637559305,0.806460398269265,0.74564403295517,0.179346676363424,3.27414238988881
1.08,1.45546534933347,124.582644199486,125.204722288371,-0.0961758959513881,0.737736710282467,0.788645923137665,0.530716219350099,3.95225762556721
1.09,1.58592872690634,124.590681132,125.204722288371,-0.055974224932407,0.701596203781827,0.717118263244629,0.246501507350461,3.7402393370088
1.1,1.71639207522114,124.633315321865,125.204722288371,0.0124885282600262,0.663238142172146,0.716444671154022,-0.159350347055196,3.95615994904015
1.11,1.84685145330327,124.571065116047,125.204722288371,0.0999285145967936,0.80289292500061,0.79828941822052,-0.692242719267492,3.60639322076418
1.12,1.97731720117988,124.627729556147,125.204722288371,0.0263550251038979,0.838373224235556,0.782733619213104,-0.226174826130785,3.29658275628457
1.13,2.1077913437404,124.583022845397,125.204722288371,0.0400552037649034,0.811465363705969,0.748817801475525,-0.303430417341788,3.24314602180742
1.14,2.23825409666513,124.555367710328,125.204722288371,-0.00132252309726981,0.809820414310678,0.775593936443329,-0.0631033796702436,3.4254242703109
1.15,2.36872564740064,124.557727010043,125.204722288371,0.00966306886857227,0.679120140432044,0.685593247413635,-0.129040444298617,3.66767823998411
1.16,2.49918009575753,124.629687188519,125.204722288371,0.0574365757227147,0.786902105574,0.792493879795074,-0.449445991616893,3.67785308399304
1.17,2.62964939571255,124.61254210874,125.204722288371,-0.042076724844586,0.705484480179463,0.75284206867218,0.153207315426895,3.91408498609191
1.18,2.76010532285512,124.606806189147,125.204722288371,0.10302531655546,0.73984683416826,0.775157988071442,-0.739867104440971,3.84428169990663
1.19,2.89056552674453,124.569747963039,125.204722288371,0.0149040069403484,0.80049477863436,0.75747948884964,-0.202145016922835,3.37525735722096
1.2,3.02102991586925,124.575305077954,125.204722288371,0.00126964288758152,0.762861009097828,0.760396659374237,-0.0933887565793095,3.62219069463531
1.21,3.15149808647454,124.591580169065,125.204722288371,0.0258460640837165,0.858330352193382,0.82371199131012,-0.248558986464499,3.43200326633539
1.22,3.28196508175405,124.570423637612,125.204722288371,-0.0924812793960051,0.909513240044225,0.836497843265533,0.452426002225148,3.20183212746049
1.23,3.41243312534304,124.59615880038,125.204722288371,0.0278888242547468,0.846952338517472,0.801622331142426,-0.274488955387549,3.36722293068942
1.24,3.54289907356764,124.563278578089,125.204722288371,-0.0399779447939649,0.747483293007981,0.749515950679779,0.13874016731321,3.65371375471362
1.25,3.67336327985414,124.622175082766,125.204722288371,-0.00181265861595398,0.627614615524378,0.67317807674408,-0.114159260480954,3.91130452948559
1.26,3.80382052326705,124.572487900699,125.204722288371,0.0470008141689329,0.634078088792938,0.689724087715149,-0.367471042058708,3.96721288218018
1.27,3.93428312237023,124.527914921095,125.204722288371,0.0755657749792425,0.719889764591526,0.702374517917633,-0.544258364815017,3.52435575684276
1.28,4.06475098599898,124.535814550177,125.204722288371,0.0131075595552246,0.775111645114408,0.748955845832825,-0.178318932559409,3.47109651631145
1.29,4.19522823270497,124.584846608292,125.204722288371,0.0933131615625493,0.80635533989014,0.753555357456207,-0.655038831943858,3.30060014325424
1.3,4.32568549383267,124.606656407785,125.204722288371,-0.0496438505531756,0.851953751074185,0.81348329782486,0.180623106590411,3.40812366366144
1.31,4.45614704567124,124.56293110518,125.204722288371,0.00928681659862626,0.800463197879825,0.78519070148468,-0.179619150874344,3.5583548278696
1.32,4.58661006004166,124.617850518662,125.204722288371,-0.0457679929094552,0.792908298743788,0.757440209388733,0.144330198591475,3.44023367304225
1.33,4.71707579664422,124.585397113724,125.204722288371,-0.0705498679777678,0.695095126765223,0.730965554714203,0.287656400251534,3.85963789311188
1.34,4.84753508819414,124.623793729436,125.204722288371,0.0250744015847388,0.743647424560471,0.805493354797363,-0.295609759584182,4.00980377844562
1.35,4.97799384022815,124.604533344438,125.204722288371,-0.0087348539671992,0.840197411449245,0.807360410690308,-0.0719857576036651,3.4448876337842
