t,theta,omega,r,i_d,i_q,i_q_ref,v_d,v_q
0,0,0,303.112644822647,-2.27166370252478e-24,0,0,0,0
0.01,0.0630886173227831,123.734101473716,303.112644822647,0.188781908004085,7.5737373589344,10,-1.26069586799602,18.3160244966889
0.02,0.257951800587536,246.033762549176,303.112644822647,0.165750216994819,7.76123842983308,10,-1.46264777391598,20.605857677328
0.03,0.559313325219809,301.837929354855,303.112644822647,-0.0771785304041341,1.20463895317298,1.20537114143372,-0.295836711776042,8.61380529655459
0.04,0.875068733934666,301.555747612625,303.112644822647,-0.0340512089506911,1.87028154569518,1.89517867565155,-0.545692255525882,8.98014795393672
0.05,1.19088720584905,301.537878196161,303.112644822647,-0.0497187757014532,1.92107292906097,1.93468606472015,-0.443570875843791,9.04071903145218
0.06,1.50671315523955,301.645435031196,303.112644822647,-0.0160133999469545,1.99897206981835,1.97062528133392,-0.635770709040425,8.89768497650238
0.07,1.82255302364193,301.644406680187,303.112644822647,0.0532928822643011,2.0326925437488,2.03768372535706,-1.07127383899565,9.18611454189293
0.08,2.13842398240962,301.723877083091,303.112644822647,0.0863208420492598,1.85984814655442,1.94408655166626,-1.2790971963061,9.70838011070345
0.09,2.45427144212507,301.759119839786,303.112644822647,0.03203664798734,1.80963827787316,1.89310371875763,-0.954546531530244,9.79012359943837
0.1,2.77015563680475,301.735910891832,303.112644822647,0.0710287231044273,1.68332207820479,1.78008496761322,-1.19981307571819,9.89729663659134
0.11,3.08604358684951,301.794393598268,303.112644822647,-0.122774336760946,1.70640456780549,1.74601650238037,-0.0579501327514458,9.57937819162398
0.12,3.40191861982619,301.612075767229,303.112644822647,-0.0416715450162212,1.7240672499175,1.68931996822357,-0.554384337643038,9.16683655628156
0.13,3.71782226699573,301.581675266185,303.112644822647,-0.0258066053161011,1.72369917497448,1.61844098567963,-0.638611891401567,8.72667014361519
0.14,4.03369994047012,301.610002234794,303.112644822647,-0.00821206524254184,1.84731443941462,1.78450322151184,-0.729569888718089,9.00167332822528
0.15,4.34957511038096,301.584803127574,303.112644822647,0.105192427388,1.93543461530611,1.84989035129547,-1.41082847718397,8.89024065755184
0.16,4.66547107747041,301.677196126212,303.112644822647,0.0704161405852645,1.90446619785757,1.86453330516815,-1.20063622305742,9.15109974400768
0.17,4.98136444235424,301.781729243751,303.112644822647,0.100042897721761,1.85873623858369,1.91390895843506,-1.37130870135571,9.72511080736199
0.18,5.29726246947755,301.69957709734,303.112644822647,0.120256536258018,1.74819886762788,1.82347309589386,-1.52175256275356,9.84041929465856
0.19,5.61315039352841,301.749114946132,303.112644822647,0.0169974001398548,1.73222498586741,1.79365026950836,-0.904605844292024,9.77690263131332
0.2,5.9290477828632,301.760344044757,303.112644822647,-0.0748834108388047,1.6902721041469,1.67749261856079,-0.35748369918607,9.33460258967163
0.21,6.2449417828275,301.651665478845,303.112644822647,-0.100452348904974,1.71196269416782,1.66686522960663,-0.208560354909058,9.14110955384033
0.22,0.277652306663079,301.581282245238,303.112644822647,-0.1129588175741,1.72174941369623,1.71673762798309,-0.10790647473111,9.37430804520387
0.23,0.593545852616545,301.597975825442,303.112644822647,-0.075039478081728,1.84396302592766,1.73226130008698,-0.329890621989266,8.72708288142039
0.24,0.909436645838475,301.612663598919,303.112644822647,0.0243962979141979,1.83326673101133,1.81736326217651,-0.91659386595125,9.30168074070872
0.25,1.22532272777663,301.624242999691,303.112644822647,-0.0156738001508816,1.79736878569757,1.80009663105011,-0.667956379836895,9.42188062278555
0.26,1.54120170906516,301.753962772985,303.112644822647,0.0515452336226896,1.96004122733723,1.97693073749542,-1.08658643636112,9.52821627892684
0.27,1.85709214475113,301.754182879577,303.112644822647,0.0712683243587806,1.78222328459838,1.80095076560974,-1.21141726218858,9.54994051957468
0.28,2.17299760639054,301.720450452911,303.112644822647,-0.0139042173119147,1.66276509555729,1.71765124797821,-0.709402300447806,9.76158930621074
0.29,2.48889959156328,301.786362458058,303.112644822647,-0.111979846673289,1.70829451862155,1.73597526550293,-0.108002058995439,9.59646758240367
0.3,2.8047826687365,301.671987578355,303.112644822647,-0.00364729357901161,1.67756219307401,1.66943228244781,-0.77707722241056,9.3987519673619
0.31,3.12067296423338,301.560103279089,303.112644822647,-0.0786892262873512,1.74638967821101,1.69999623298645,-0.320764482063744,9.16850716224211
0.32,3.43654440843618,301.408635938756,303.112644822647,0.00107257712301545,1.87874021883725,1.93308460712433,-0.801756388605263,9.7979484804106
0.33,3.7524198293596,301.45275168737,303.112644822647,-0.00165701969268628,1.92784568846674,1.94856333732605,-0.778079482825196,9.61804768890818
0.34,4.06828915328109,301.720097710783,303.112644822647,0.0648759811344979,1.94440457225842,1.96347749233246,-1.19506888945829,9.64138769026892
0.35,4.38418762774418,301.791419626421,303.112644822647,0.0362338903374072,1.88494661625754,1.90594530105591,-1.01331447992865,9.64183897522688
0.36,4.70010188562389,301.740412270648,303.112644822647,0.0222970061757088,1.69081157568898,1.81270909309387,-0.923060426681086,10.2120654080411
0.37,5.01601674599052,301.824390730346,303.112644822647,-0.0575448302700045,1.68523575112698,1.73638772964478,-0.455536872488111,9.76835989764918
0.38,5.33192042970048,301.771203272736,303.112644822647,-0.056468191776854,1.67955323699512,1.6476457118988,-0.480501418106422,9.25995016685099
0.39,5.64782355258511,301.670263663559,303.112644822647,-0.0801415600886825,1.71393728418945,1.64209949970245,-0.326046699574721,9.0090481839552
0.4,5.96371682200685,301.621446719991,303.112644822647,-0.0142918485282534,1.80150902445761,1.72769808769226,-0.717169040656612,8.99253556304718
0.41,6.27961222393987,301.573375546563,303.112644822647,-0.0655013262238554,1.79936331171212,1.77341532707214,-0.400369820165991,9.27031848039104
0.42,0.312317651320193,301.575114130703,303.112644822647,-0.06145347383234,1.85278164545527,1.83250164985657,-0.415837881200738,9.29997263434486
0.43,0.628193315158176,301.652422138877,303.112644822647,0.0900789442774346,1.90805938496655,1.90010190010071,-1.34176956499547,9.39619573140605
0.44,0.944095844682336,301.679952293697,303.112644822647,0.00520675438633422,1.84056442564327,1.84774124622345,-0.839711109441034,9.47001515275437
0.45,1.25998971825472,301.712780952627,303.112644822647,0.0871912089362515,1.73236865634744,1.72693133354187,-1.33654816788442,9.39598796909558
0.46,1.57588859983057,301.839727790392,303.112644822647,0.0246194378062929,1.5993394822494,1.66217255592346,-0.986167832294443,9.81226569565229
0.47,1.89175496607612,301.732998209589,303.112644822647,-0.0812361770798123,1.7384202196455,1.74002540111542,-0.342678147159786,9.49793139150966
0.48,2.2076573607234,301.618590648271,303.112644822647,-0.0792944808842167,1.70627807556794,1.6695305109024,-0.345194699130986,9.25370073720304
0.49,2.52354988196108,301.578114790104,303.112644822647,-0.0436713424956757,1.73491138675033,1.70409166812897,-0.559964888345529,9.28561655615695
0.5,2.83943558222782,301.525971338508,303.112644822647,-0.0190829858705062,1.89688606688668,1.84002792835236,-0.696430595695523,9.13161684042635
0.51,3.15533201443998,301.686715941742,303.112644822647,0.0786467274101386,1.9041586644574,1.8200511932373,-1.28362658155202,8.95635569785902
0.52,3.47122025058066,301.682002728142,303.112644822647,0.00749968447517324,1.84872801673488,1.86159062385559,-0.853575546070543,9.540776951461
0.53,3.78712341520956,301.716935516061,303.112644822647,0.119054200681466,1.80586108279997,1.84267520904541,-1.53361877058648,9.66676253678108
0.54,4.10302337205243,301.7323553896,303.112644822647,0.0364819112600216,1.65081167836851,1.72518503665924,-1.03347267409011,9.88214906458334
0.55,4.41892805605352,301.746182191652,303.112644822647,-0.0610524206847572,1.70339545512992,1.81220638751984,-0.441367398944711,10.082431117222
0.56,4.73481375196145,301.702105605708,303.112644822647,-0.0910510342849636,1.69591250590953,1.72513568401337,-0.25949284812461,9.62600663156541
0.57,5.05071529811735,301.654091903153,303.112644822647,-0.0566771542032182,1.73875809752886,1.70000994205475,-0.451739723733766,9.20729085342402
0.58,5.3666123953979,301.589172848573,303.112644822647,-0.0454635772035271,1.75636363924545,1.6930183172226,-0.506857478299771,9.05194063721797
0.59,5.68250669845312,301.575925411837,303.112644822647,0.026166629566405,1.83427088932296,1.77328753471375,-0.916380339016139,9.05703179782758
0.6,5.99838155363777,301.466952493661,303.112644822647,0.0395534189014052,1.91878079910565,1.91292750835419,-0.995235171982733,9.40673739010227
0.61,0.0310825933561318,301.702237777345,303.112644822647,0.0306445644778574,1.97476534720625,1.96146762371063,-0.936849921986206,9.36581063431764
0.62,0.346991556345653,301.663004657071,303.112644822647,0.00909931472312597,1.80721179429492,1.77984166145325,-0.826123749898146,9.25335766513816
0.63,0.662886042649085,301.707148896763,303.112644822647,0.0705138691163785,1.7413226449032,1.76002311706543,-1.20359602774679,9.53458296731677
0.64,0.978793948812609,301.751616916625,303.112644822647,-0.0143401107507113,1.72908210540799,1.76330673694611,-0.697112571127247,9.61628539714113
0.65,1.29468959609726,301.678681306289,303.112644822647,-0.0919727167785039,1.69195987116233,1.73928773403168,-0.226283776076867,9.70290762414056
0.66,1.61059767570454,301.590572970811,303.112644822647,-0.0678472499602523,1.68187936380485,1.60589897632599,-0.346717459021509,8.94159506221697
0.67,1.92648731972384,301.614058766549,303.112644822647,-0.0963277219040442,1.76819340199506,1.67781257629395,-0.191498173177962,8.85527696826831
0.68,2.24237144629962,301.642493781705,303.112644822647,-0.00678086904049703,1.87123827458358,1.82921814918518,-0.727411739559564,9.15400394033945
0.69,2.55825761591836,301.587013674971,303.112644822647,0.0481267782636051,1.95643034490918,1.89367926120758,-1.07274902515956,9.03033117684358
0.7,2.87414633564757,301.745719043931,303.112644822647,0.0377717814489603,1.97830921007454,1.9247852563858,-1.0191074108584,9.08582693859496
0.71,3.19004491479799,301.705812759441,303.112644822647,0.0451886925471432,1.83463123848058,1.86318814754486,-1.04035523164579,9.57402781397366
0.72,3.5059285912123,301.848951345259,303.112644822647,0.0673635132018442,1.70752037456584,1.83099400997162,-1.19330151426133,10.1682469027383
0.73,3.82181158844513,301.759697829185,303.112644822647,-0.016059724509459,1.7008872770421,1.70575797557831,-0.687154957972078,9.48609856647941
0.74,4.13771905833596,301.688292292153,303.112644822647,-0.0557002404679977,1.67578728605438,1.6606011390686,-0.448942915104891,9.35219821519615
0.75,4.45361676118043,301.643346504273,303.112644822647,-0.023923065537363,1.73289795088672,1.69139099121094,-0.646511451974179,9.19015766718111
0.76,4.76951263910493,301.647321591353,303.112644822647,-0.0616848596338432,1.85675527546199,1.75388729572296,-0.411470262986779,8.81380088976178
0.77,5.08540625326281,301.518647619301,303.112644822647,0.0074663743997172,1.89079126005257,1.8198162317276,-0.819539707017763,8.9981198455953
0.78,5.4012949213873,301.595282082924,303.112644822647,-0.0323029255225613,1.86562038793778,1.84498298168182,-0.580419358403186,9.29837522282081
0.79,5.71717621831053,301.676298149048,303.112644822647,0.0460396677781871,1.92505884686621,1.8975203037262,-1.06554489339916,9.27027446627892
0.8,6.03307473601703,301.634108704484,303.112644822647,-0.0163515519603413,1.76905341705502,1.80480360984802,-0.694998591296508,9.6415999439483
0.81,0.0657841081045945,301.743328393496,303.112644822647,0.109161388932643,1.69913912042214,1.71762001514435,-1.46268603912693,9.54000736525921
0.82,0.38168112563573,301.766100015486,303.112644822647,0.025287233005856,1.73351809182519,1.78506183624268,-0.984466668538424,9.74249686022127
0.83,0.697578120496186,301.632048826934,303.112644822647,-0.109807939201623,1.64893023295524,1.62428021430969,-0.170990391764203,9.28639327767336
0.84,1.01347397316369,301.682463750738,303.112644822647,-0.0196068297843685,1.78592273708228,1.69054794311523,-0.708741949829306,8.85888054905157
0.85,1.32936514195423,301.638492850028,303.112644822647,-0.0716429247908874,1.85300431662014,1.75083112716675,-0.38786215583899,8.8180420438044
0.86,1.64526539944783,301.570077069971,303.112644822647,-0.0690031217267095,1.91518715095983,1.82595121860504,-0.376716897052051,8.87786811128452
0.87,1.96115560484337,301.581918835344,303.112644822647,0.00963436603027656,1.88280205482142,1.83865225315094,-0.842621119058869,9.14913446585452
0.88,2.27704528422754,301.642970845595,303.112644822647,0.0605951167516388,1.87699588336994,1.84981739521027,-1.13926693259411,9.25132079705109
0.89,2.59295204737737,301.660702211712,303.112644822647,0.0864929072207234,1.75588550589438,1.81807482242584,-1.31746526687065,9.77151281460364
0.9,2.90885742157882,301.689333474927,303.112644822647,-0.00738266201317897,1.69467518488785,1.81453847885132,-0.769175614284787,10.1045400547421
0.91,3.22475691378026,301.793866027324,303.112644822647,-0.0801548344996336,1.66464507327635,1.72764837741852,-0.337148830284823,9.76970307092422
0.92,3.54064252051431,301.709419289237,303.112644822647,-0.0677942303819746,1.72134091901511,1.72361516952515,-0.399816244125634,9.42821328482507
0.93,3.85654667192984,301.663412126126,303.112644822647,-0.0584872659722332,1.71903986043452,1.62658524513245,-0.452247915724908,8.84221034041759
0.94,4.17243385908192,301.615798200749,303.112644822647,-0.00217015889827543,1.80964626151893,1.75308179855347,-0.773743756798073,9.06040669889783
0.95,4.48832303945682,301.481332133911,303.112644822647,-0.0103084396607616,1.89175329696855,1.86494469642639,-0.72744283730446,9.23447358474567
0.96,4.80421109804195,301.581214671572,303.112644822647,0.0363416333168534,1.84778020475127,1.79693388938904,-1.01398689573294,9.0943476705353
0.97,5.12007848638497,301.679223246267,303.112644822647,0.0270283389218861,2.05942967795683,2.06186437606812,-0.956059115931399,9.44692402763172
0.98,5.43598153404262,301.722643206327,303.112644822647,0.000398104644594666,1.8110670015221,1.84710931777954,-0.798490254732363,9.63606482290064
0.99,5.75187416378273,301.795879425228,303.112644822647,0.121045052125411,1.70869520086451,1.72250556945801,-1.52518930249309,9.5111980918139
1,6.06777631376317,301.741035552679,303.112644822647,0.0333286829594855,1.71897282392495,1.76469969749451,-1.0129377441394,9.69699288986144
1.01,0.100495082759558,301.759156485487,303.112644822647,-0.0669863802430366,1.73931810863191,1.74601006507874,-0.410846182696097,9.45177364137663
1.02,0.416397405180057,301.577114082528,303.112644822647,-0.0115025452084228,1.58592500042228,1.56113219261169,-0.72478189420076,9.24604310459072
1.03,0.732261746911284,301.575516549525,303.112644822647,-0.100443122039682,1.75878627930617,1.69178426265717,-0.190047879753006,9.03824253208365
1.04,1.04814783998558,301.510306359908,303.112644822647,-0.039339665881809,1.91446915851727,1.89154005050659,-0.542026956699806,9.30041359791838
1.05,1.36405093308639,301.570320137833,303.112644822647,0.0263488804664095,1.85544456927288,1.8531129360199,-0.932766242791805,9.40061692021728
1.06,1.67993683518037,301.646440967785,303.112644822647,0.0664066928896992,1.88171766464535,1.86960780620575,-1.15987995927651,9.34708531629605
1.07,1.99583158094449,301.706378276677,303.112644822647,0.10958970185271,1.76962027059153,1.84043979644775,-1.42676611566044,9.84963561406208
1.08,2.31173724660026,301.693933038073,303.112644822647,0.028289946712109,1.5867835509629,1.7294534444809,-0.925079309065966,10.2674300835738
1.09,2.62764514681903,301.786972458953,303.112644822647,-0.0588782070240785,1.68457199910556,1.7163645029068,-0.41391954058451,9.586807870144
1.1,2.9435422483724,301.707139826682,303.112644822647,-0.1034393776165,1.65264781072523,1.63652014732361,-0.156575197518649,9.29919494195941
1.11,3.25943535136355,301.57660299485,303.112644822647,-0.0895961770387004,1.57234680723255,1.56695127487183,-0.248573783464204,9.3647291862126
1.12,3.57529322692884,301.637057586585,303.112644822647,0.020112213085253,1.82647628176262,1.76923656463623,-0.906853334821658,9.10607122974896
1.13,3.89118841565144,301.554928586422,303.112644822647,-0.0773344904529217,1.80948418230556,1.78509902954102,-0.334882891894871,9.29292921785238
1.14,4.20707866942382,301.591943051366,303.112644822647,-0.00564053107648577,1.95783234496778,1.86017405986786,-0.757519704678503,8.84840831830548
1.15,4.52296942365528,301.646209317145,303.112644822647,0.000672217999464375,1.81506248435307,1.82463765144348,-0.780043913267825,9.48771601985319
1.16,4.83887359756964,301.702380632196,303.112644822647,0.0612395149801245,1.77656253370245,1.81346821784973,-1.12774014039157,9.63763222742669
1.17,5.15474966229686,301.818329991048,303.112644822647,0.0911274092189241,1.74973483315938,1.82476913928986,-1.32710975646588,9.90309911303687
1.18,5.47065786357521,301.786921250391,303.112644822647,-0.053571964843514,1.64019039532184,1.68029224872589,-0.4790826880588,9.68215072073898
1.19,5.78656326849872,301.75235727874,303.112644822647,-0.0680115617861379,1.71188180471194,1.66869366168976,-0.37337736187161,9.16891387201686
1.2,6.10244198836718,301.609344936407,303.112644822647,-0.0613819904052429,1.70572744651543,1.6284373998642,-0.416009847832067,8.99153447148382
1.21,0.135135918457692,301.591361518672,303.112644822647,-0.0110791470797134,1.88301346709742,1.79901599884033,-0.733899598400352,8.96618036133821
1.22,0.451033521630514,301.572507897549,303.112644822647,-0.00644198206583224,1.92668995583746,1.86049616336823,-0.764216299497051,9.05806141740229
1.23,0.766938729780875,301.674987779501,303.112644822647,-0.00416522561095323,1.92581631225139,1.8594890832901,-0.758083554570901,9.03332249639088
1.24,1.08284282975431,301.659155560811,303.112644822647,0.0757495474827665,1.79878071637992,1.83027589321136,-1.21764594892123,9.598753123148
1.25,1.39873469746569,301.645699885277,303.112644822647,0.0888187211258,1.73015226091303,1.78444159030914,-1.2879030761558,9.74098305104078
1.26,1.71461354772133,301.704373966684,303.112644822647,-0.024871701495667,1.63085910337743,1.73883318901062,-0.605685922974582,10.0922956034555
1.27,2.03052458918676,301.763402472105,303.112644822647,-0.0715197890263022,1.65339383735199,1.71601092815399,-0.319272760382817,9.80779578394425
1.28,2.34643131790859,301.715125618352,303.112644822647,-0.0271007562864098,1.71233407000387,1.64535784721375,-0.571307774603287,9.01278782171667
1.29,2.66233674290417,301.583909208947,303.112644822647,-0.0581906420436085,1.63697393365795,1.61795127391815,-0.378781076057153,9.28648258073066
1.3,2.97821876066294,301.592717393029,303.112644822647,-0.0376219029405883,1.88161744132812,1.77683198451996,-0.488889507900727,8.78203024057995
1.31,3.2941072044941,301.456622341318,303.112644822647,-0.0205286952839172,1.8987841077188,1.89269185066223,-0.60142990591801,9.38030458721804
1.32,3.60999481719034,301.563836209089,303.112644822647,-0.0219279616189023,1.86244127175841,1.85762965679169,-0.622368559427854,9.39334055478533
1.33,3.92588235221704,301.65814144182,303.112644822647,0.0580195733731296,1.88964169514403,1.86850142478943,-1.11045989352635,9.30128896583314
1.34,4.24177625865783,301.65205265236,303.112644822647,-0.0412928449881372,1.78256622787985,1.79947447776794,-0.513663251919266,9.53732347913749
1.35,4.55766757522593,301.747045062341,303.112644822647,0.0679321147264662,1.71166666941851,1.75856339931488,-1.17313006514252,9.72845108461689
1.36,4.87356801623772,301.800128604076,303.112644822647,-0.0834397610447898,1.77238097107968,1.8052966594696,-0.279952919065424,9.65100353219152
1.37,5.18947311616922,301.707055039579,303.112644822647,0.0493929242661187,1.66779151949421,1.65289318561554,-1.06667144209675,9.35155668893272
