t,theta,omega,r,i_d,i_q,i_q_ref,v_d,v_q
0,0,0,110.409196125903,-2.3026598015444e-24,0,0,0,0
0.01,0.062957549576968,112.29829259083,110.409196125903,0.0125789728313125,-0.241643449352383,-0.553374052047729,-0.164467937855497,1.16086733395799
0.02,0.177943670599855,109.878334251423,110.409196125903,0.0294319527476025,0.686238522065327,0.686808049678802,-0.243460692903453,3.08703450675352
0.03,0.292982017814349,109.816224787705,110.409196125903,-0.095262791466613,0.655325004146866,0.651932120323181,0.513402796470161,3.10277763741433
0.04,0.408013920173829,109.851518428083,110.409196125903,-0.0355773485391095,0.657220455055185,0.71243554353714,0.135426309431503,3.50083645645646
0.05,0.523049582993674,109.873980002696,110.409196125903,-0.0514590851448989,0.581958315166459,0.650019645690918,0.214615874370591,3.59509768627206
0.06,0.63808181278443,109.804991163907,110.409196125903,-0.0361678652990561,0.665244097023266,0.644862949848175,0.140931005167822,3.08662782208292
0.07,0.753130787295963,109.830009265021,110.409196125903,0.066207122516049,0.672449706672334,0.688146770000458,-0.480881402663872,3.31795309797506
0.08,0.868182052529749,109.909259186269,110.409196125903,-0.0502731129591272,0.697823414497861,0.718851804733276,0.217532199208162,3.36465114480909
0.09,0.983236932768032,109.833541162595,110.409196125903,-0.0414482591282238,0.597896512083871,0.575995147228241,0.157382172741993,3.09790636682543
0.1,1.09827011412326,109.908533823693,110.409196125903,0.0806094280263641,0.669947287953026,0.65777176618576,-0.583222102139456,3.17337614289949
0.11,1.21332834696092,109.837833593899,110.409196125903,-0.0433269764497162,0.681006035018121,0.681092023849487,0.188856204229976,3.24482887070472
0.12,1.32839093597139,109.891682123478,110.409196125903,0.012848314206341,0.704940075828334,0.707088470458984,-0.157347176188077,3.25648973166243
0.13,1.4434436246315,109.822494925161,110.409196125903,-0.0933057021374755,0.618644577199143,0.653186321258545,0.468368802505897,3.45479692808933
0.14,1.55848860811131,109.866899533787,110.409196125903,0.0113886412611497,0.547529559330813,0.602953851222992,-0.151374739796942,3.57047878674278
0.15,1.67353540399375,109.889114178851,110.409196125903,0.020464499628873,0.686293634182166,0.671225726604462,-0.186738229696281,3.15028595602345
0.16,1.78858182531548,109.837355445143,110.409196125903,-0.0248152553196364,0.669190604637839,0.671511471271515,0.0899371321368965,3.28073467728969
0.17,1.903639472537,109.883485737014,110.409196125903,0.0343715582638345,0.696360573490746,0.671672880649567,-0.262517571891457,3.1167457321353
0.18,2.01869200326317,109.900486563757,110.409196125903,-0.00858429018773494,0.673172654469268,0.728371024131775,-0.0172691473627621,3.58430172995963
0.19,2.13374823413141,109.893755467936,110.409196125903,0.0477184975808443,0.672287396917843,0.64365428686142,-0.333157577555675,3.06702490738368
0.2,2.24879758001952,109.814695708208,110.409196125903,0.052239065471219,0.669574958853495,0.694062948226929,-0.356936279818013,3.40175550135463
0.21,2.36385860710126,109.863710123918,110.409196125903,-0.0335042527713773,0.656465626136798,0.655460715293884,0.153340041691272,3.2503289115271
0.22,2.47890945779493,109.988274184862,110.409196125903,0.00612155630023365,0.697381767352306,0.673474133014679,-0.0953311183033611,3.10924291701955
0.23,2.59395274841862,109.916567996783,110.409196125903,0.0627340140937218,0.676275882487477,0.669311046600342,-0.425470068016536,3.21230638070688
0.24,2.709003562726,109.880904427065,110.409196125903,-0.0298526100048396,0.711143716647969,0.716411352157593,0.143735804672463,3.2971864973131
0.25,2.82406389586529,109.805791171617,110.409196125903,0.0284223726707608,0.663364530983273,0.685859858989716,-0.207490992802411,3.40019202795849
0.26,2.93911719086924,109.877362188028,110.409196125903,-0.107233745383327,0.626483797377492,0.616635143756866,0.606605399281622,3.21202155067928
0.27,3.05416959002614,109.84823719468,110.409196125903,0.0226821078808473,0.542236210895234,0.601451516151428,-0.176832834950411,3.60700727954674
0.28,3.16921423246151,109.862101562365,110.409196125903,0.0650944805781697,0.672962081171228,0.661243438720703,-0.420593551199093,3.19537800382419
0.29,3.28428280250692,109.876273389521,110.409196125903,-0.0744242583600518,0.696558347065229,0.711595594882965,0.397796750804449,3.34490682696519
0.3,3.39935315347238,109.841112083757,110.409196125903,0.0583362494603597,0.642464390393498,0.576247751712799,-0.417639875153484,2.83589663331933
0.31,3.51439760615854,109.919947861256,110.409196125903,-0.0364520882210966,0.591565177697612,0.631884455680847,0.125772340992022,3.47590180774797
0.32,3.62944081814666,109.915709698549,110.409196125903,0.0398237753995745,0.719242792730183,0.764201700687408,-0.309433389380258,3.51044723866233
0.33,3.74449680834701,109.877485607556,110.409196125903,0.0623710515938964,0.684786954418447,0.673432767391205,-0.40520007493137,3.1788504990914
0.34,3.85955099269182,109.846617523106,110.409196125903,-0.0309773899055006,0.656458736945888,0.680425584316254,0.133192057164312,3.40347238607364
0.35,3.97460805034999,109.841911378672,110.409196125903,-0.0395580456361847,0.496319543728842,0.47774663567543,0.177541231080672,3.13720739489273
0.36,4.08966213986449,109.872964630114,110.409196125903,0.0905035780762606,0.593812874183314,0.630964398384094,-0.605257038233867,3.45286209166841
0.37,4.20470989855594,109.810259368308,110.409196125903,-0.0218762031767163,0.661573784990243,0.674451410770416,0.0775608878044081,3.31845189580793
0.38,4.31975588594836,109.815329811492,110.409196125903,-0.0448838141170045,0.757344399943145,0.693119704723358,0.208424731631094,2.88404078693638
0.39,4.43480217365837,109.848381310456,110.409196125903,-0.0967461592852095,0.627095010039387,0.663607239723206,0.524264445970124,3.50581066859935
0.4,4.54984382687753,109.856390090759,110.409196125903,0.00787089517905959,0.665126587370634,0.624237239360809,-0.101258869469857,3.03831726796966
0.41,4.66491040994728,109.855987851761,110.409196125903,0.0553986058650442,0.704469627823366,0.757807731628418,-0.390861794973325,3.57935071369932
0.42,4.77996534427966,109.86274153603,110.409196125903,-0.0277124674395572,0.803871308674956,0.755439937114716,0.109614677613747,2.97781671548302
0.43,4.89502134902903,109.892605079776,110.409196125903,0.0174504922430899,0.718089701186624,0.745100319385529,-0.163219141371285,3.43733219716259
0.44,5.01007947189723,109.8674346469,110.409196125903,0.0720844726817789,0.568260829793681,0.612677037715912,-0.50219650924882,3.52081789854232
0.45,5.12512921118915,109.886136459764,110.409196125903,0.00146075297685427,0.685037143319981,0.63167279958725,-0.0614875552328875,2.93000513335015
0.46,5.24018203656748,109.859416174303,110.409196125903,0.0412120992492478,0.702969326755511,0.735253155231476,-0.3040362713557,3.45630773564314
0.47,5.3552439297073,109.821119346566,110.409196125903,-0.0349772256808032,0.62320651872735,0.608780443668365,0.12364725454129,3.17676263854258
0.48,5.47029487768986,109.955630303186,110.409196125903,-0.0194319435240509,0.563596124402902,0.632473528385162,0.0337410935793649,3.68089015672431
0.49,5.5853443047856,109.873118279827,110.409196125903,0.0336548849254289,0.640241743817547,0.599144399166107,-0.258140898742295,3.00454500562618
0.5,5.70038639465107,109.884890185476,110.409196125903,-0.0383200707629019,0.711575633387401,0.711995124816895,0.184653082531786,3.27914470064824
0.51,5.81545508547186,109.850458351234,110.409196125903,0.0428195540310484,0.694952650520766,0.728224337100983,-0.310884782440523,3.46018147054116
0.52,5.93051180606255,109.948553495305,110.409196125903,-0.0625406420937091,0.66504343340411,0.68060028553009,0.293684467841203,3.35761266929621
0.53,6.04555205362467,109.878605251304,110.409196125903,0.0410646714379121,0.68018617093553,0.707793653011322,-0.326573648290096,3.42877764445872
0.54,6.16060239887844,109.866184042198,110.409196125903,0.0393105629043317,0.677584974267453,0.664855539798737,-0.301979833223277,3.19212685505981
0.55,6.27565734997886,109.843603626718,110.409196125903,-0.0238066059238805,0.687514227809991,0.709584593772888,0.0780460143392405,3.41531961031032
0.56,0.107524470685734,109.923513319692,110.409196125903,0.0267893418228091,0.78176862020223,0.801512122154236,-0.230470535881089,3.40358674818207
0.57,0.222593889227318,109.845415036428,110.409196125903,0.0748256228377949,0.573638076405459,0.641537487506866,-0.516742355222577,3.6496961318951
0.58,0.337647575214333,109.873883620302,110.409196125903,-0.00285918162944271,0.685491246388724,0.646904349327087,-0.027685996782761,3.00086528038756
0.59,0.452703969831854,109.861752959459,110.409196125903,0.0352712340039994,0.701075500233687,0.724412620067596,-0.254666750251615,3.37478172214729
0.6,0.567770620745928,109.887599840322,110.409196125903,-0.0213547535287714,0.660170045446689,0.619755029678345,0.077566548234288,2.98305604140504
0.61,0.682813233218182,109.873182055882,110.409196125903,-0.0436316533920026,0.623856399450723,0.646079003810883,0.189655836802144,3.36722644503278
0.62,0.797864477056857,109.963349753271,110.409196125903,0.053739637026978,0.689829575007198,0.655217289924622,-0.405404255990061,3.01480626913214
0.63,0.91291870760792,109.804308383429,110.409196125903,-0.0294293626758959,0.661846295808584,0.68202668428421,0.113318046426942,3.3423922281777
0.64,1.02797766021534,109.820034285931,110.409196125903,0.0192176972522832,0.660686316071696,0.660643935203552,-0.17808845378744,3.22571626286214
0.65,1.14303056742717,109.885391092391,110.409196125903,-0.114298753299203,0.629312762268817,0.628974735736847,0.619153426345223,3.22745540242206
0.66,1.25808801833935,109.864005114823,110.409196125903,0.086125847877677,0.627805775678025,0.589559555053711,-0.577123354645129,2.97302904017275
0.67,1.37313031876102,109.874634662596,110.409196125903,0.00567882652228073,0.683802155760845,0.673808932304382,-0.101516772332937,3.1620607679319
0.68,1.4881910714012,109.826203040685,110.409196125903,-0.0313635684314442,0.656610485655451,0.643257439136505,0.115525617257309,3.14177932631382
0.69,1.60325156145147,109.899529331741,110.409196125903,0.0567364175847962,0.682240928536283,0.634058356285095,-0.418574858540433,2.93177035913692
0.7,1.71829520682452,109.897356779106,110.409196125903,-0.00706270850554536,0.647237643739617,0.65025383234024,-0.0455001286493076,3.24099925122006
0.71,1.83332831660705,109.847983072449,110.409196125903,-0.00843704632265185,0.683336699986856,0.669057667255402,-0.0176663234595727,3.1623154659165
0.72,1.94837461931304,109.862121753927,110.409196125903,0.0297849107884601,0.805603139042311,0.750088930130005,-0.24829991127112,2.93665068403466
0.73,2.06344831408922,109.873498693529,110.409196125903,-0.0428762123069293,0.682219634263661,0.721784472465515,0.193916406102795,3.48765664633953
0.74,2.17849763352352,109.852264493301,110.409196125903,0.0186901211041218,0.580294559460989,0.555746376514435,-0.198660878846677,3.10024186997062
0.75,2.29353896580587,109.866257104449,110.409196125903,0.0671699645453862,0.639302143100675,0.631019055843353,-0.490118540595281,3.20039446661162
0.76,2.40858500950001,109.862557514035,110.409196125903,-0.0468855831729334,0.711958352269572,0.74008709192276,0.212911511158858,3.43860676053818
0.77,2.52364621124067,109.886991281042,110.409196125903,0.0212887863514286,0.672952651402707,0.62594473361969,-0.194987669448883,2.98980219448398
0.78,2.63871448229799,109.933667630453,110.409196125903,-0.0778502005750656,0.640401118170519,0.616395473480225,0.401317350301672,3.10653100747834
0.79,2.75375950779113,109.867411550734,110.409196125903,-0.0039016444468819,0.69966043005572,0.707092225551605,-0.0514839486787247,3.28735303045521
0.8,2.86881375579944,109.814739933042,110.409196125903,0.0263684474887468,0.666726892397431,0.685224056243896,-0.235776709608406,3.35676400379091
0.81,2.98386116112493,109.857197707885,110.409196125903,-0.0945464613569098,0.695585136812994,0.734153628349304,0.496629845762026,3.50040189745264
0.82,3.09892142201861,109.936505635012,110.409196125903,0.0570183958365993,0.689785673433013,0.621321082115173,-0.428473409888316,2.85629814671335
0.83,3.21397432506179,109.883424810572,110.409196125903,-0.0690433898192791,0.613425021353377,0.660065591335297,0.330995363843789,3.53426718005458
0.84,3.32901746740109,109.854533727911,110.409196125903,0.0399539078965075,0.680437308993342,0.712100327014923,-0.302028589338888,3.45302469372546
0.85,3.44406440450704,109.856889049622,110.409196125903,0.0252550190568434,0.805779018504902,0.756750345230103,-0.215736530488405,2.98692067279825
0.86,3.55913362412877,109.929291719181,110.409196125903,-0.0272614880361778,0.697847481929348,0.720914483070374,0.0938253064310729,3.408812609427
0.87,3.67419349190118,109.86386876405,110.409196125903,0.0143648129496247,0.65445205580936,0.660485744476318,-0.182925106351681,3.28993373468863
0.88,3.78924359560003,109.905349182805,110.409196125903,0.0643406323400522,0.674405045880603,0.661358654499054,-0.485058753134755,3.15993853454215
0.89,3.90428720603332,109.859969861505,110.409196125903,-0.0402392315842444,0.711060284639846,0.740967154502869,0.163983485490018,3.43952420885372
0.9,4.01934512164813,109.767840992458,110.409196125903,-0.00491676047535891,0.614826851474655,0.582020103931427,-0.0381978172685676,3.0687373737701
0.91,4.13439090140709,109.836156261848,110.409196125903,-0.0805761435363452,0.602562207570656,0.621848702430725,0.403745673627487,3.39802946033094
0.92,4.24944353798758,109.922272052738,110.409196125903,0.0790870231678566,0.669244239231407,0.642718851566315,-0.57172571500588,3.10318440551212
0.93,4.36449429711796,109.862707344775,110.409196125903,0.0514720533823937,0.678695827914688,0.674541711807251,-0.398291069568766,3.24179176514504
0.94,4.47956353008531,109.850889862138,110.409196125903,-0.0833377746020467,0.719083420008692,0.689235270023346,0.41912528848074,3.07293873583834
0.95,4.59462247600727,109.870538836536,110.409196125903,0.0574393488516379,0.684144081871153,0.683807492256165,-0.455370687909212,3.2436068708943
0.96,4.70966776712458,109.844926645402,110.409196125903,-0.0257823254461573,0.561968480975842,0.611432433128357,0.0437473339544744,3.54226894218887
0.97,4.82471348411567,109.917879969622,110.409196125903,0.0440970301223471,0.688831534186605,0.663421988487244,-0.359418716184467,3.09916534984369
0.98,4.93976971455848,109.855515312834,110.409196125903,0.0195065292531989,0.805067244751484,0.75518012046814,-0.19277579769756,2.95786984365659
0.99,5.05483093271491,109.935523980078,110.409196125903,-0.0353593466654125,0.701772902635399,0.728558123111725,0.135223011287495,3.42087414439609
1,5.16987941119523,109.886321071332,110.409196125903,-0.000744360377871671,0.657715397868798,0.644462525844574,-0.0761302693181902,3.17889638967932
1.01,5.28493297253111,109.851121937225,110.409196125903,0.0913317111683603,0.589612201031161,0.626038193702698,-0.624681019721245,3.46017490861198
1.02,5.39998218053161,109.887440655973,110.409196125903,0.0615973353563062,0.703943621290363,0.710129499435425,-0.428539825094452,3.29357565391367
1.03,5.51504679666919,109.911019436681,110.409196125903,0.029222699578292,0.708430832524868,0.706790506839752,-0.254951570362837,3.23991169925656
1.04,5.63009901339616,109.904979880117,110.409196125903,-0.0813459017847833,0.643122359478563,0.670966029167175,0.396819895799348,3.42318830831071
1.05,5.74515176750373,109.859640629972,110.409196125903,0.0721711175433227,0.663478330900059,0.693812131881714,-0.528260418873993,3.41848597477887
1.06,5.860199138678,109.856146551072,110.409196125903,0.0374099672891111,0.708129818289805,0.763732552528381,-0.326633509751151,3.57943614031247
1.07,5.97526065367895,109.860744160537,110.409196125903,-0.103253498124209,0.694800188024789,0.728495180606842,0.547574866358904,3.44858960087095
1.08,6.0903130633168,109.903962348238,110.409196125903,0.0582085623724893,0.727374261858239,0.753452837467194,-0.426380522833982,3.40758905592307
1.09,6.20536402950566,109.926159336226,110.409196125903,0.0801605170092314,0.622487337600885,0.704496324062347,-0.560869464135648,3.73496067374842
1.1,0.0372270457970565,109.832866191948,110.409196125903,0.0249950748973002,0.672366600123219,0.704161047935486,-0.216545340588991,3.43714172863486
1.11,0.152279700024083,109.899467570568,110.409196125903,0.0342904572355444,0.768902479765817,0.767442047595978,-0.258117018813927,3.24426057837595
1.12,0.267343129732952,109.936578335959,110.409196125903,-0.0436284335562008,0.702024103763068,0.728580057621002,0.211711964566765,3.4131611100473
1.13,0.38239639672085,109.940614378911,110.409196125903,-0.054204233155079,0.651450291548847,0.649068772792816,0.271066909876744,3.23036062578769
1.14,0.497433667523273,109.870896230209,110.409196125903,0.0393125969959502,0.682128345611843,0.728022396564484,-0.288167525755851,3.53036933243617
1.15,0.61248426733502,109.887844073617,110.409196125903,-0.00421651065522261,0.774348974088952,0.790174245834351,-0.0295905919058951,3.35899467895017
1.16,0.727540186854235,109.855280857808,110.409196125903,0.000641880273423434,0.653625672377973,0.623616695404053,-0.0523509508628791,3.08767842256184
1.17,0.842595713916435,109.804395045354,110.409196125903,-0.115804991750998,0.608312868134399,0.661819279193878,0.630826172124641,3.58131489606067
1.18,0.957626525705182,109.940691068158,110.409196125903,0.0709558985106095,0.684662668455542,0.674378991127014,-0.493824687421747,3.2162547761549
1.19,1.07268013157851,109.86638864247,110.409196125903,0.0510693408892441,0.700596319880539,0.723116457462311,-0.357256229280354,3.40595677213752
1.2,1.18773199134657,109.863302422477,110.409196125903,0.0273235691049782,0.807412876103849,0.763430535793304,-0.22663403436757,3.02053802948953
1.21,1.30279534620914,109.873075960674,110.409196125903,0.0496102258642879,0.679042498521074,0.664125204086304,-0.382861071792159,3.18408933664357
1.22,1.41783482701119,109.8624426738,110.409196125903,-0.0784562311574943,0.53277831473531,0.577037394046783,0.37380694376011,3.54855362516059
1.23,1.53288309371511,109.899025709194,110.409196125903,0.041898726451946,0.686634314418186,0.674283266067505,-0.331944288983147,3.2059761611836
1.24,1.64794068457817,109.795828134908,110.409196125903,0.0262914555437977,0.639620420575599,0.632011234760284,-0.226080980682569,3.23626501971376
1.25,1.762996384028,109.878264676996,110.409196125903,-0.0628248289783965,0.652064682978491,0.635706961154938,0.315406255679153,3.18659060119783
1.26,1.87805494704821,109.937004007669,110.409196125903,0.0770927348654167,0.597585985397195,0.554580926895142,-0.549339754324995,3.01047098134187
1.27,1.99308861975301,109.866676811332,110.409196125903,0.0354248546429753,0.682895292563379,0.733046591281891,-0.291825729330255,3.58275227389852
1.28,2.10815158130289,109.852228835798,110.409196125903,0.0255458839371497,0.674789216227611,0.665142893791199,-0.232266743589723,3.21441344601093
1.29,2.22322243450205,109.836929783481,110.409196125903,-0.00130664618629445,0.658892507793055,0.636352896690369,-0.0533275823586417,3.12156830243188
1.3,2.3382750290619,109.873427324793,110.409196125903,-0.0688430355471512,0.627853452016494,0.662225127220154,0.330059763041132,3.46305450423426
1.31,2.45331637233336,109.827273191445,110.409196125903,0.0729282736705888,0.631829116397499,0.63358211517334,-0.52914982218846,3.26760735275462
1.32,2.56836669334954,109.867520344626,110.409196125903,0.0413020906347525,0.67998065233452,0.66915374994278,-0.349665607464946,3.19664903227279
1.33,2.68343237582264,109.801696777503,110.409196125903,-0.0798388199091048,0.652711279619425,0.678235471248627,0.391931647354586,3.41234339424451
1.34,2.79849154244207,109.897135197579,110.409196125903,0.046356222782049,0.685875914402443,0.663187325000763,-0.390300462763242,3.11871844124407
1.35,2.91354272639831,109.851459479694,110.409196125903,-0.0344684744003866,0.564649088154654,0.609352886676788,0.0927047087583631,3.5121929218163
