t,theta,omega,r,i_d,i_q,i_q_ref,v_d,v_q
0,0,0,106.747890127025,-2.27314527382319e-24,0,0,0,0
0.01,0.0611348667676019,108.835809442212,106.747890127025,0.0368065869701033,-0.941714486298414,-1.64321875572205,-0.344208875733196,-1.18361225758155
0.02,0.172317037929551,106.232160169212,106.747890127025,0.0228965692693353,0.693346467068053,0.696755051612854,-0.242799100987799,3.09075479227278
0.03,0.283571137346741,106.201660173135,106.747890127025,-0.0476510397963139,0.662562601067095,0.67460435628891,0.202113518428599,3.15652257594204
0.04,0.394825621932494,106.18377430006,106.747890127025,-0.0140672961904316,0.572926648957549,0.570838689804077,0.00996726312800786,3.06914953733231
0.05,0.506071181189299,106.261726700178,106.747890127025,0.0253405039948801,0.582917073915589,0.630517482757568,-0.231476621631288,3.35028377999662
0.06,0.617320065583121,106.212397291265,106.747890127025,0.00242512269484049,0.6914499965737,0.710475862026215,-0.0849441459153405,3.18154756276074
0.07,0.72856965753362,106.193554415048,106.747890127025,0.0123512419930764,0.642942340701196,0.60725212097168,-0.150813170600628,2.86343966987684
0.08,0.839822762107857,106.267677367369,106.747890127025,-0.0193645942145627,0.568532237948474,0.548404097557068,0.0177838555031086,2.95264570679049
0.09,0.951067402033089,106.326745698759,106.747890127025,0.00734274774380306,0.718138304756646,0.693130552768707,-0.137813058266165,2.90551533392215
0.1,1.0623216820543,106.174267585666,106.747890127025,0.0679128547630383,0.665498509020296,0.694161236286163,-0.471174292111091,3.22181604082824
0.11,1.17357645038853,106.260533323957,106.747890127025,0.0340954115476373,0.695446392928595,0.685142517089844,-0.270538803462813,2.9961738142002
0.12,1.28482784840848,106.166361948442,106.747890127025,-0.00551287298468647,0.533564144480834,0.536527037620544,-0.0343680282619535,3.07257106297586
0.13,1.39605832195966,106.255555988211,106.747890127025,0.0388642096093062,0.627553336243159,0.639610528945923,-0.307200280367097,3.13890528374162
0.14,1.5073210557649,106.193228489696,106.747890127025,-0.0157885355447132,0.64767355975498,0.602882385253906,0.0335457926953161,2.78195643019257
0.15,1.61856552760235,106.192942311561,106.747890127025,-0.0232550690259894,0.658653179652303,0.672554194927216,0.0789685168960177,3.15552842479091
0.16,1.72982051190019,106.300211626471,106.747890127025,-0.0553816922371217,0.590718740659327,0.634030878543854,0.268462025623489,3.31898176930311
0.17,1.84106046926451,106.199322925731,106.747890127025,-0.0200366972769229,0.687938567992663,0.686087906360626,0.0623932616438031,3.04615436382127
0.18,1.95231344026446,106.242863026508,106.747890127025,0.0778648557735321,0.685436185409752,0.668092548847198,-0.506292525306741,2.9584684057646
0.19,2.06356406422768,106.23662439813,106.747890127025,-0.013957668794593,0.674568511559568,0.680843889713287,0.0227741196896965,3.11462871707285
0.2,2.17481409796252,106.218041404012,106.747890127025,-0.0452773639506689,0.556257102226531,0.588110029697418,0.197812507133738,3.26210730442789
0.21,2.28604840056428,106.24227172406,106.747890127025,0.0581114099822688,0.587052903107362,0.55112236738205,-0.404593679564569,2.86313489029296
0.22,2.39729945751174,106.230675028031,106.747890127025,-0.0281613655481782,0.679179579173958,0.646967828273773,0.141751971837207,2.89616428218882
0.23,2.50854574555558,106.214601973894,106.747890127025,0.0425022880348126,0.6615378574571,0.639676809310913,-0.322032855612744,2.96841824478367
0.24,2.61978830608282,106.293434917494,106.747890127025,0.0628206665880782,0.613517202351353,0.666508674621582,-0.470039131618417,3.41861390613954
0.25,2.73104439887176,106.200971797623,106.747890127025,0.0251449422525273,0.623155052552767,0.629103183746338,-0.251335293538888,3.11577636724252
0.26,2.84228620734428,106.216603496863,106.747890127025,0.0474665726643673,0.686925115593711,0.701191365718842,-0.385620169785951,3.18936502883717
0.27,2.95354427234538,106.258514090097,106.747890127025,-0.000489158141404211,0.548624073620601,0.569332420825958,-0.101185807079563,3.2220437615796
0.28,3.06478190943816,106.272192848861,106.747890127025,0.00746393122424016,0.633980874691895,0.643566012382507,-0.15174308277109,3.16149518006743
0.29,3.17602591360411,106.255894961238,106.747890127025,0.091539495890308,0.680421749419315,0.672644913196564,-0.650541935407218,3.05664240094788
0.3,3.28727398064214,106.214638424978,106.747890127025,-0.055270803087859,0.684315698705167,0.700007438659668,0.252058533396548,3.2132984875895
0.31,3.39852493249909,106.274164863166,106.747890127025,-0.0475517050939116,0.671468778646205,0.684304237365723,0.197300749435606,3.20178775843074
0.32,3.50978270483653,106.301941390025,106.747890127025,-0.0128446959606987,0.51126288450588,0.542712032794952,-0.0138408603823337,3.2854965911607
0.33,3.62103714092232,106.207993821629,106.747890127025,0.085736880969694,0.540894326524804,0.598167717456818,-0.584171388182185,3.4200021484938
0.34,3.7322865829554,106.189023054502,106.747890127025,0.0629373270261215,0.642630288752538,0.600474417209625,-0.438979430110582,2.83614661275981
0.35,3.84353771711971,106.260669877095,106.747890127025,-0.012893086525498,0.656414743086099,0.635831356048584,0.0164106288846336,2.97150916777249
0.36,3.95478025955587,106.2519915036,106.747890127025,0.00301354484521757,0.518742085330348,0.595794975757599,-0.0822609486090596,3.5545932526914
0.37,4.06603241444808,106.26427163613,106.747890127025,0.0326173218302991,0.695902546988834,0.676340460777283,-0.25636310915932,2.96698700636966
0.38,4.17729128272795,106.246290209848,106.747890127025,0.0188317390735825,0.686167618020685,0.665187656879425,-0.182866053785085,2.95532038211685
0.39,4.28854767625445,106.265821010358,106.747890127025,0.0172656945746101,0.668666853504953,0.631135702133179,-0.194159421782179,2.8506685144423
0.4,4.3997962347082,106.243459426235,106.747890127025,0.0808873719308777,0.597226770810895,0.620163559913635,-0.555061425771218,3.19623836736104
0.41,4.51104707351598,106.204199489634,106.747890127025,0.0467299696953916,0.547914064488771,0.591068625450134,-0.328326329474571,3.31425081630062
0.42,4.62229265262017,106.164426711638,106.747890127025,0.0699329706155172,0.661100235791239,0.676367819309235,-0.48149360389154,3.17231413806447
0.43,4.73353756719461,106.276645705001,106.747890127025,-0.00655621259340879,0.589323199147646,0.571100533008575,-0.0319709085562027,2.98534946552108
0.44,4.84478105395723,106.234939143503,106.747890127025,0.0581529575079303,0.503606932396181,0.533412754535675,-0.416438975311065,3.2628195222779
0.45,4.95603431707344,106.228714553519,106.747890127025,-0.0259772032965537,0.685606750309046,0.661359906196594,0.103195555278697,2.93065641442989
0.46,5.06729279095147,106.194114389827,106.747890127025,0.0284455928491203,0.675984121803281,0.698128223419189,-0.213638248923154,3.21208989285738
0.47,5.17854791213593,106.251807017214,106.747890127025,-0.0333038837947111,0.514356489847225,0.586560189723969,0.141849756355304,3.5090124016572
0.48,5.28978620021685,106.29994666347,106.747890127025,0.0228820067765813,0.63694002128852,0.623960912227631,-0.183209633511997,2.99674548556286
0.49,5.40104745055705,106.245873756629,106.747890127025,0.034118945440303,0.686146671972508,0.662592351436615,-0.234998937413112,2.91626762441741
0.5,5.51229922139459,106.16528736946,106.747890127025,0.00527901995777258,0.660391055267237,0.693218052387238,-0.0854636367358525,3.26433574132578
0.51,5.62354459754538,106.253432245042,106.747890127025,-0.0850069657510041,0.578905043736833,0.611154735088348,0.447718729993091,3.26535045224018
0.52,5.73479553968968,106.260029210062,106.747890127025,0.00165513080450436,0.639671435225277,0.632194042205811,-0.0559185182192367,3.00367645226386
0.53,5.84604595025679,106.218504816899,106.747890127025,0.00572510164098106,0.689528800185424,0.696603894233704,-0.0711681295528946,3.0998705422398
0.54,5.95730556827408,106.229892416304,106.747890127025,0.0588485471622691,0.554351189504064,0.562238276004791,-0.368131965343036,3.10414139260669
0.55,6.06854368300072,106.284881333392,106.747890127025,0.0707893450796882,0.616105020726318,0.584259986877441,-0.466816963002602,2.87845923826223
0.56,6.17977379690065,106.194447620822,106.747890127025,0.0362406075512351,0.666630834435321,0.687411189079285,-0.26981569022292,3.20616952584424
0.57,0.00783834213625045,106.210559124753,106.747890127025,-0.0476541166906785,0.72015524704397,0.784871399402618,0.258121201533911,3.48133308430809
0.58,0.119092570611237,106.281719874112,106.747890127025,-0.0497045119940921,0.675311805981009,0.642048418521881,0.268786795368269,2.90079858780994
0.59,0.230346262564812,106.287500232546,106.747890127025,-0.0791484087285156,0.569889369449033,0.596298456192017,0.422531561521007,3.24326381280455
0.6,0.341597955793339,106.222154522969,106.747890127025,0.0127533161701258,0.563302749093912,0.595624208450317,-0.111075862036135,3.25451338762546
0.61,0.452844168639564,106.194336073863,106.747890127025,0.0556646232491279,0.669003793999775,0.666357398033142,-0.378676740777197,3.05661864124326
0.62,0.56409753896476,106.213306522419,106.747890127025,-0.0311815621262821,0.644830912123647,0.627608180046082,0.132250434690129,2.97631393957093
0.63,0.67533676091659,106.295966867562,106.747890127025,-0.04533793690944,0.647446705955043,0.667346239089966,0.199395874924558,3.20106665338673
0.64,0.786576764359926,106.235385154204,106.747890127025,0.0672007618425667,0.623680541934985,0.645839214324951,-0.47339741018673,3.21800678431081
0.65,0.897835681199244,106.194283826951,106.747890127025,0.00042815530124895,0.642205156817072,0.60056346654892,-0.0683487157193479,2.83059389100591
0.66,1.00907757457795,106.265905107684,106.747890127025,0.0377339165622163,0.693536097387357,0.688504934310913,-0.309998831152839,3.07298942051369
0.67,1.12032849187361,106.301560521129,106.747890127025,-0.0195201014714219,0.551156586720123,0.622746527194977,0.0353526764041976,3.51849162631491
0.68,1.23156631147022,106.261011689801,106.747890127025,-0.0286028221130349,0.698699836598392,0.644327819347382,0.0998335898781444,2.77291594759187
0.69,1.34282194645106,106.24666131541,106.747890127025,-0.00110662877252965,0.684069615120182,0.651275336742401,-0.06263972670085,2.90493290048632
0.7,1.45406808223651,106.240932452358,106.747890127025,0.00730019922728647,0.669457625645892,0.672450125217438,-0.10859195703022,3.13429931478306
0.71,1.56531440387992,106.286145912635,106.747890127025,0.0734452826951558,0.660728643735381,0.652952969074249,-0.522457676501623,3.06065850867295
0.72,1.67656387551719,106.2594301296,106.747890127025,0.0398158138875254,0.7259348400513,0.783102095127106,-0.292293142214891,3.44564569521515
0.73,1.78781741421843,106.19426485535,106.747890127025,-0.0691785518125588,0.639768341366781,0.606822371482849,0.36200379248766,2.91166207382769
0.74,1.89906805429668,106.243869421771,106.747890127025,0.020190086981538,0.668060362159528,0.615791082382202,-0.176328060459455,2.80087006864892
0.75,2.01032934714754,106.285874730345,106.747890127025,0.075871043732075,0.589093789681087,0.601996004581451,-0.530027419068981,3.15453902972033
0.76,2.12157407314076,106.221204573555,106.747890127025,0.0272480412442042,0.652619864211651,0.605589985847473,-0.226925479332025,2.79670468308413
0.77,2.23281404459333,106.196453231309,106.747890127025,0.00145062954684713,0.669312734644588,0.675871551036835,-0.0830732228604162,3.14749825040248
0.78,2.34406433577018,106.25442957445,106.747890127025,-0.0256161250253307,0.620179335570104,0.644981265068054,0.0901675315221355,3.26217700569348
0.79,2.45530829904678,106.257721577445,106.747890127025,0.0108425884212529,0.599002162182689,0.602675259113312,-0.135643404664371,3.12532526778128
0.8,2.56654830444585,106.237761606627,106.747890127025,-0.0207466532151553,0.636983798375598,0.62510347366333,0.0629457534959259,3.04777979858513
0.81,2.67781511110523,106.226976095055,106.747890127025,0.0861622405221974,0.553975897201954,0.563703417778015,-0.569708387271081,3.16248604768158
0.82,2.78905428380139,106.170450187278,106.747890127025,-0.042953515685236,0.494590187158856,0.538560509681702,0.191423298403689,3.39002065138837
0.83,2.90029484229243,106.261606666342,106.747890127025,0.0288326365128654,0.591938511257725,0.670030772686005,-0.258222340750765,3.58701833769773
0.84,3.01155814160285,106.249150789937,106.747890127025,-0.0168376468800279,0.687476006628152,0.643442451953888,0.0100145796235931,2.83198901144092
0.85,3.12282351610923,106.246740323924,106.747890127025,0.0288307351346669,0.687571534477515,0.671234011650085,-0.263802991178632,2.99115568958712
0.86,3.23407656999071,106.291831424708,106.747890127025,-0.0851965167536375,0.649131077493977,0.670266151428223,0.419797931343213,3.21171638726357
0.87,3.34531980199004,106.200856949809,106.747890127025,0.0108359701388844,0.506942433120008,0.572676956653595,-0.155613209597906,3.46658063944288
0.88,3.45656292997806,106.208775217766,106.747890127025,0.0205537522457715,0.647431202402418,0.592282295227051,-0.194959054429408,2.7530399584325
0.89,3.56782372426898,106.243951081573,106.747890127025,0.00123133494613588,0.674910129256506,0.6446892619133,-0.0706415167278483,2.89809409306531
0.9,3.67907711506145,106.188634814411,106.747890127025,-0.0515610756965375,0.531189351162765,0.520169854164124,0.23296822023041,3.00845607461166
0.91,3.79030984012268,106.275125711152,106.747890127025,-0.0110567808954735,0.578367767774199,0.594843864440918,-0.0192117132962407,3.1847683251351
0.92,3.90156788381259,106.281901765658,106.747890127025,-0.0304720409465636,0.695250203099238,0.629828095436096,0.11463909466449,2.68512972421245
0.93,4.01282627062549,106.269507030433,106.747890127025,-0.0381581988034819,0.677315108716405,0.634686708450317,0.15811192004985,2.82064874853128
0.94,4.12408482672079,106.242654955419,106.747890127025,-0.067584853005158,0.547563310959573,0.558833599090576,0.314610861707369,3.12628222032551
0.95,4.23531314339121,106.242078911885,106.747890127025,-0.0388383302295012,0.722067701375097,0.760796666145325,0.166747955982253,3.30185975509614
0.96,4.34656843285944,106.173943662942,106.747890127025,-0.0125230129865642,0.670101414281978,0.684853196144104,0.0108477673656669,3.1647281946663
0.97,4.45781383691191,106.237005085563,106.747890127025,-0.010310583260821,0.676842795943748,0.684562921524048,-0.0204361636576287,3.14169224587405
0.98,4.56906761633771,106.262798932138,106.747890127025,-0.0777407520163004,0.599201896609694,0.558293282985687,0.370878223047956,2.83202917961853
0.99,4.68031615632397,106.221698502764,106.747890127025,0.0760141567685225,0.595994651786196,0.593717932701111,-0.53524977752956,3.04841435762657
1,4.79157448561313,106.261744242563,106.747890127025,-0.00204850465794815,0.68887214153044,0.645278096199036,-0.0689926986645627,2.7992806486623
1.01,4.90283270111584,106.2360525458,106.747890127025,-0.0494977791478287,0.648666828831764,0.625317990779877,0.216885093738471,2.92542384541523
1.02,5.01407948300957,106.255273028796,106.747890127025,-0.0383828815303471,0.589723564267814,0.63076376914978,0.145632901127097,3.30398417872626
1.03,5.12532791300779,106.239647976181,106.747890127025,0.00909860605205726,0.582035571923223,0.631478309631348,-0.144364255559484,3.3447857368283
1.04,5.2365887944951,106.190606406738,106.747890127025,0.0372217361191143,0.658229651779551,0.632599353790283,-0.300726828228628,2.88853381178751
1.05,5.34784495691118,106.28572112644,106.747890127025,-0.00200617133080958,0.674506386135226,0.628424763679504,-0.0647002096225282,2.77132323181625
1.06,5.45908009735927,106.245959781488,106.747890127025,0.0797318764304373,0.605197726986543,0.606522560119629,-0.556754201425551,3.0612482564728
1.07,5.57031143543057,106.229402477916,106.747890127025,0.0431884579457756,0.650819741197397,0.625439167022705,-0.315222238087803,2.91948558794086
1.08,5.68155841156879,106.230193675403,106.747890127025,-0.0760410599000021,0.685395938270909,0.677857518196106,0.416018231308577,3.04857066991538
1.09,5.79281465976685,106.186827665064,106.747890127025,-0.055971943336765,0.605023986250282,0.567712128162384,0.280626628839282,2.86613964247532
1.1,5.90405595021947,106.234469541845,106.747890127025,0.0550145639252401,0.484664534749596,0.529335618019104,-0.394153334806059,3.35861372255133
1.11,6.01529649888962,106.215852864169,106.747890127025,0.100916125640906,0.539398519863996,0.58788537979126,-0.651828007361042,3.3840873958016
1.12,6.12654208520847,106.254944173824,106.747890127025,-0.00866784662192954,0.684907438745043,0.652656674385071,0.0210896538375654,2.92002425755289
1.13,6.23780167858068,106.302287118041,106.747890127025,-0.0311054042018458,0.676307059762147,0.644936442375183,0.160251885760645,2.91737875819588
1.14,0.0658467209850269,106.203977864018,106.747890127025,0.00191532438979478,0.602015798535862,0.577845692634583,-0.058728826693025,2.97265128538626
1.15,0.177106753065321,106.221373758713,106.747890127025,0.00521454013131015,0.655372280311008,0.611757159233093,-0.0633210881780239,2.83146750980642
1.16,0.28837132361976,106.261884181076,106.747890127025,-0.0843542037198646,0.678399661857507,0.645691335201263,0.482702151833406,2.88819120334449
1.17,0.399615522179817,106.240607979547,106.747890127025,-0.0216489571614197,0.62053108263196,0.642329692840576,0.0819773193622688,3.23225974296335
1.18,0.510867743073485,106.289547971036,106.747890127025,0.0307041371332455,0.599816539744967,0.599301099777222,-0.222684407153456,3.07177974708807
1.19,0.622114983555599,106.294613577571,106.747890127025,-0.00306755554857152,0.700279660844002,0.641048967838287,-0.0105118005304755,2.72422964057195
1.2,0.733377068939184,106.266138187493,106.747890127025,-0.0159235940439428,0.674716097066078,0.620716154575348,0.0742656954773577,2.74781601403698
1.21,0.844628171878185,106.229908096883,106.747890127025,-0.0151345155276476,0.583145962701637,0.577879369258881,0.051495188657964,3.04688195944702
1.22,0.955870433054447,106.248193007253,106.747890127025,0.0679908976657482,0.609689845733817,0.605806589126587,-0.470115832220726,3.04781565226208
1.23,1.06712042930459,106.228708577035,106.747890127025,-0.0492806605239476,0.565476847113435,0.577784359455109,0.242893051824768,3.14832958891179
1.24,1.17836859512818,106.200983455729,106.747890127025,-0.00445931455684814,0.641223117079841,0.61384129524231,-0.0372625792420957,2.92886165541814
1.25,1.28961501188556,106.224260956123,106.747890127025,0.0300083248118347,0.60324550624155,0.566149294376373,-0.255653707949918,2.87656603526787
1.26,1.40086122801209,106.255892682804,106.747890127025,0.0283082729664134,0.617322692617387,0.612176656723022,-0.245923688585471,3.05236449052783
1.27,1.51211221821445,106.19953745344,106.747890127025,-0.030875194935829,0.653344200727522,0.608532726764679,0.129393732197751,2.81356320172978
1.28,1.62337019767051,106.184337045867,106.747890127025,-0.0312814094571102,0.634732004978083,0.593168199062347,0.14117355060089,2.83911218003104
1.29,1.73461430960224,106.251611512912,106.747890127025,-0.0725923906628053,0.567572947967477,0.565394401550293,0.376997600940842,3.08335244602278
1.3,1.84585592967687,106.217209586957,106.747890127025,0.0166279309280959,0.604573762724662,0.590611577033997,-0.150628041558632,3.00388327636011
1.31,1.95711009935578,106.192465656894,106.747890127025,-0.00785449915200787,0.647023326173336,0.605598568916321,-0.00234446715178624,2.83307151107348
1.32,2.06835831819467,106.261013950273,106.747890127025,-0.010833453328603,0.677563873927017,0.652981042861938,0.0145603914235017,2.95108130966139
1.33,2.1796153395602,106.229854669844,106.747890127025,-0.0504956458812149,0.553631951502563,0.53925621509552,0.24517326088229,2.99380195377681
1.34,2.29085030823128,106.246362878497,106.747890127025,0.0709607798073717,0.584700467909499,0.576679527759552,-0.47659848227294,3.03804210432861
1.35,2.40210345233474,106.20697136607,106.747890127025,0.0374062886760173,0.672707344457486,0.661278665065765,-0.268462260366862,3.01672770165738
