t,theta,omega,r,i_d,i_q,i_q_ref,v_d,v_q
0,0,0,74.528050792781,-6.65464847499011e-25,0,0,0,0
0.01,0.0527774922198295,74.5264492999165,74.528050792781,0.0207031962467368,1.56350908202461,2.08065176010132,-0.148123780150837,5.35226352519405
0.02,0.130496733899846,74.1200345406979,74.528050792781,0.0225248296000368,0.41135016441946,0.512191236019135,-0.157792133124842,2.84971982673577
0.03,0.208160375089043,74.1200291228554,74.528050792781,0.0548928244934844,0.379690147415782,0.463126361370087,-0.355323335285625,2.78369727950751
0.04,0.28581492310531,74.1174369277844,74.528050792781,0.00269367368740178,0.387485736021042,0.449206322431564,-0.0300045522627684,2.73471064799959
0.05,0.363454246239594,74.1751542077522,74.528050792781,-0.00201886637926055,0.413357054786585,0.45964777469635,-0.0124796242307277,2.72516776392546
0.06,0.441142360730382,74.1103262787156,74.528050792781,-0.0182293202757293,0.374241749617782,0.41219174861908,0.0895638181353739,2.69951287517542
0.07,0.518825476784623,74.2543940737639,74.528050792781,0.0250941966337739,0.406607142429046,0.361811339855194,-0.177135155391231,2.21487163807731
0.08,0.596523516170083,74.1324320138089,74.528050792781,-0.0264594476119556,0.387063676485264,0.419315367937088,0.151680313914663,2.67553248983087
0.09,0.67419796159062,74.2167560848353,74.528050792781,-0.0188446105368166,0.360776486915683,0.346854448318481,0.103703302414008,2.43497318051541
0.1,0.751873803380871,74.1315864616033,74.528050792781,0.0422137692855123,0.394822848098557,0.454182326793671,-0.266026842978649,2.89945342023418
0.11,0.829579008998523,74.1677266868979,74.528050792781,0.0455192452614327,0.292386463922658,0.252981185913086,-0.30310858779946,2.29396036413915
0.12,0.907258666463698,74.2267257694348,74.528050792781,0.0308658107354784,0.408374105071018,0.389367789030075,-0.21872210612508,2.43577803913328
0.13,0.984972514333827,74.2206036570473,74.528050792781,-0.00514453225518718,0.305670242925469,0.296243190765381,0.00568388784715635,2.46836528372171
0.14,1.06264614672563,74.2195337033918,74.528050792781,-0.0504208396027019,0.430253216761955,0.450566351413727,0.283765052407686,2.670952212056
0.15,1.14035275088947,74.1632510375897,74.528050792781,-0.0344093643759845,0.377552617966763,0.40613067150116,0.184764843052456,2.71516945905215
0.16,1.21802545513051,74.2098421818697,74.528050792781,0.0452900430386674,0.406284352907134,0.424859911203384,-0.294051133198145,2.67670288075891
0.17,1.2957321947986,74.171326698413,74.528050792781,-0.0339885057979131,0.374775854619999,0.426916986703873,0.172292139452026,2.87123362190646
0.18,1.3734050985205,74.2018678227543,74.528050792781,-0.0222252404794079,0.396205432689146,0.354986757040024,0.0918940939046928,2.3272703669026
0.19,1.45111773637055,74.1518073089107,74.528050792781,-0.0316148681666237,0.376820792636289,0.388174444437027,0.149732525675128,2.62891486766294
0.2,1.52879630493776,74.1717210284429,74.528050792781,-0.00352425852396053,0.397813691926641,0.432964444160461,-0.0086018614094228,2.77899769325839
0.21,1.60651292093584,74.1125701004326,74.528050792781,-0.0681301283280926,0.36361045786844,0.424763143062592,0.378707689871999,2.91454991181288
0.22,1.68419478562119,74.154882389844,74.528050792781,-0.0374899142012299,0.40110821919233,0.428005993366241,0.205097547119696,2.70920272144634
0.23,1.76187415114944,74.1548278882489,74.528050792781,0.00322821002812032,0.425877380353982,0.499872952699661,-0.0461663490069005,3.03962378479639
0.24,1.83955161490897,74.1920089314728,74.528050792781,-0.00249131731107005,0.448507276652726,0.466452360153198,-0.0140500596974781,2.70892917457851
0.25,1.91727692402674,74.2057751714058,74.528050792781,-0.0645218263501953,0.456029508659826,0.526400864124298,0.388009316994097,2.98768730394673
0.26,1.9949670421966,74.2294254317732,74.528050792781,0.0446759898951692,0.393418336901096,0.362794876098633,-0.286819055885177,2.37357003357096
0.27,2.07267550572397,74.1264503305947,74.528050792781,2.16074603209826e-07,0.375239952797838,0.417775183916092,-0.0282347717063375,2.8045095537211
0.28,2.15034274201245,74.2413595175755,74.528050792781,-0.0107839022730039,0.452751164682153,0.517995178699493,0.0482962309466306,2.97394579857063
0.29,2.22806456480117,74.1113384624185,74.528050792781,0.0390566055726059,0.381365025684436,0.431989759206772,-0.24796158688438,2.85250146049966
0.3,2.30574341591807,74.2780001919723,74.528050792781,0.0114148389403625,0.418366556694009,0.366840124130249,-0.0929703589322521,2.25501681983479
0.31,2.38345523993882,74.1577790114025,74.528050792781,-0.00465032182938291,0.41615019491193,0.473258793354034,0.0145993870180878,2.88502580407111
0.32,2.46113291431162,74.3029524287363,74.528050792781,0.0227344607415174,0.419833374344507,0.353853464126587,-0.166687596988711,2.16590879935078
0.33,2.53883245675452,74.133896777599,74.528050792781,-0.0736881845445424,0.455867830773962,0.431157112121582,0.432272388268799,2.40340070641337
0.34,2.6165376926531,74.214335636995,74.528050792781,-0.0294277918201966,0.3446212683141,0.379754662513733,0.143714411606603,2.7392400115807
0.35,2.69422167620062,74.1535056719904,74.528050792781,-0.0169983661408005,0.420689211140465,0.4915991127491,0.0716871572063584,2.9725771397399
0.36,2.77191089201829,74.3413234955031,74.528050792781,-0.0910782371067558,0.368349787417501,0.333729207515717,0.52845918546386,2.35182952641511
0.37,2.8495917467813,74.1817142209795,74.528050792781,0.00278493737939695,0.430576091088062,0.435975909233093,-0.0255771329406168,2.606544397513
0.38,2.92730580615475,74.2279563496665,74.528050792781,-0.0331711609743771,0.328974283229881,0.271076858043671,0.175445287697649,2.20136039245941
0.39,3.00497505018126,74.1587391809451,74.528050792781,-0.0421754297279386,0.40415275368879,0.439728945493698,0.224643465949817,2.79505202866158
0.4,3.08269434695725,74.2676617211769,74.528050792781,-0.084346726242692,0.358411855704391,0.305712163448334,0.482295116145359,2.23237886484645
0.41,3.1603772210359,74.1500978721351,74.528050792781,0.0092962306812768,0.386792158687373,0.40614652633667,-0.0750596637062276,2.66610587111387
0.42,3.23808056869128,74.2116651907741,74.528050792781,-0.0169542080684196,0.386829812624751,0.379624903202057,0.0918559226422286,2.51104540161897
0.43,3.31574803168748,74.1960158764727,74.528050792781,-0.00589581109850232,0.425539095807747,0.467012107372284,0.0274737259246251,2.82725697925832
0.44,3.3934778911433,74.1979187472532,74.528050792781,-0.0684201317944333,0.36401553696742,0.378607213497162,0.39154782745783,2.62187862441717
0.45,3.47114458056463,74.215674391048,74.528050792781,-0.0695297072517883,0.42260723758197,0.411383092403412,0.397147650552994,2.49310944570573
0.46,3.54885498119563,74.3260107744837,74.528050792781,-0.00728315418726828,0.432709710907997,0.382151454687119,0.0227021321418584,2.25390715670442
0.47,3.6265343390806,74.1427970775621,74.528050792781,0.00315062718330097,0.387007860019859,0.442845404148102,-0.0257863821275705,2.89635087876417
0.48,3.70424574688967,74.1597261188556,74.528050792781,-0.0412375309309915,0.373620961329515,0.390607327222824,0.221857125506253,2.65758109244342
0.49,3.78193128987476,74.3079405633917,74.528050792781,-0.00933088974391857,0.442202104537624,0.413683742284775,0.0363449067784726,2.3824363942756
0.5,3.85963422154766,74.1502708422776,74.528050792781,0.0512832534358567,0.394814287270885,0.405104219913483,-0.305633257758343,2.61469457736845
0.51,3.93732049190952,74.1920370074984,74.528050792781,0.102358841620788,0.371915178766627,0.392776131629944,-0.630132818776824,2.67558001729846
0.52,4.01503960230625,74.1748041032426,74.528050792781,0.0407564740556153,0.396962354870674,0.421339958906174,-0.246745710518278,2.67536689038652
0.53,4.09270150719835,74.126035016515,74.528050792781,0.016012968441282,0.392961623698823,0.476038247346878,-0.117030044739872,3.0670487006789
0.54,4.17039811994685,74.2142568008979,74.528050792781,0.0324866671346197,0.507805028494932,0.50173419713974,-0.21507948269813,2.54846541049873
0.55,4.24808772992473,74.2298718578421,74.528050792781,0.0158905768356667,0.40337922551877,0.385236352682114,-0.11147024750941,2.47036300030013
0.56,4.32581815928978,74.1952430856621,74.528050792781,-0.0113770964931065,0.38100080984126,0.33580407500267,0.0742051217648856,2.25606583308412
0.57,4.40350021355254,74.3014765275768,74.528050792781,0.0228108054518493,0.416578942213876,0.3563511967659,-0.132795040187596,2.17982372814066
0.58,4.48120681613168,74.1541982904175,74.528050792781,-0.0295359707154391,0.373910919304431,0.352547943592072,0.187443082184934,2.39767177836166
0.59,4.55889406802748,74.2419731395012,74.528050792781,0.103427373763925,0.318768859357184,0.265216052532196,-0.621398829124411,2.21110033726125
0.6,4.63657932460406,74.1577443933799,74.528050792781,0.0256484500428125,0.415452385421651,0.473439067602158,-0.169677912695111,2.89722255928159
0.61,4.7142566379966,74.1511464111025,74.528050792781,0.0344228567790791,0.384058432522313,0.409570932388306,-0.236489620154998,2.73179855356025
0.62,4.79193426913192,74.1472091446038,74.528050792781,0.018349709749579,0.384214419079546,0.392359256744385,-0.144039020862402,2.65667152344427
0.63,4.86964312685606,74.2565338515105,74.528050792781,-0.0790290637167471,0.351876423006233,0.357318162918091,0.433561775878865,2.61659819651832
0.64,4.94732328273573,74.20311113715,74.528050792781,-0.0294370549489664,0.508348379820262,0.497391402721405,0.157896800991546,2.52836377348035
0.65,5.02503434107077,74.1507450208093,74.528050792781,0.0253010833380473,0.389005091946465,0.395583599805832,-0.184655541024667,2.61422850126238
0.66,5.10271867471509,74.1289698315565,74.528050792781,0.0194356687786533,0.386745419172572,0.435557663440704,-0.141044940674304,2.8722286060039
0.67,5.18044884272154,74.1595778248093,74.528050792781,0.00713586335892354,0.387146134073683,0.421778321266174,-0.0760869982868121,2.74009779201331
0.68,5.25811155664951,74.1803274874067,74.528050792781,-0.101239441716313,0.432177813698857,0.485368728637695,0.595723364883219,2.88793811164769
0.69,5.33581073315745,74.1369057465454,74.528050792781,0.000927020568720766,0.385846657887792,0.446595788002014,-0.0334340639790823,2.94173334559894
0.7,5.41349792151937,74.1886181751045,74.528050792781,-0.0386222964553356,0.39605344323264,0.386984527111053,0.215576953768372,2.51501708847366
0.71,5.4912010126554,74.1986927579989,74.528050792781,-0.0924115819027929,0.413389244223852,0.473880290985107,0.539393585564428,2.9335928865568
0.72,5.56888349194445,74.2095543552081,74.528050792781,-0.00771163136926911,0.44275000655205,0.449069410562515,0.0309786801952412,2.60580956969198
0.73,5.64658383054934,74.0966733496484,74.528050792781,-0.005613984467241,0.381235861369355,0.439739048480988,0.0283469059335228,2.93041303814914
0.74,5.72426640063665,74.1403088008095,74.528050792781,0.0328661937828282,0.382123113718893,0.444353878498077,-0.202740185809835,2.94960213814407
0.75,5.80198483630563,74.1819962996649,74.528050792781,-0.0154594021778373,0.420675834417086,0.501688420772552,0.0787463635289666,3.04030817658767
0.76,5.87966951087468,74.1866372279068,74.528050792781,0.0191368018363034,0.351813413901827,0.251815378665924,-0.125322065806494,1.94442997446805
0.77,5.95736125121455,74.1946873243728,74.528050792781,0.0851193089156553,0.397921909616691,0.360238462686539,-0.54855142276167,2.34151394051608
0.78,6.03503811098214,74.1993479007523,74.528050792781,-0.0201797095102374,0.461197691474732,0.478547394275665,0.0925072023933526,2.67909877780174
0.79,6.11275860688638,74.2158485951218,74.528050792781,0.0220632084383715,0.428066400072061,0.471881717443466,-0.143369870032919,2.80934221792218
0.8,6.19043686897581,74.229997113584,74.528050792781,0.0407226361239933,0.390543753600377,0.360036015510559,-0.260926104883418,2.37431076733778
0.81,6.2681252364653,74.1564369279944,74.528050792781,0.091906507412187,0.427599861248387,0.484476089477539,-0.578919203520926,2.92419025878427
0.82,0.0626273620142062,74.2705213353762,74.528050792781,-0.00670147936187343,0.417773261219596,0.349115818738937,0.0103506098419469,2.16759390239309
0.83,0.140353431725687,74.2014061420454,74.528050792781,-0.059558640016156,0.496622867856043,0.494117498397827,0.335399715809931,2.52062589826003
0.84,0.218055713436614,74.2428466448877,74.528050792781,-0.0300487216907589,0.34476874816534,0.328456401824951,0.137041607864166,2.42103633960336
0.85,0.295750839150845,74.1774842714286,74.528050792781,-0.0521918090402041,0.430121332804416,0.451620519161224,0.287995640063444,2.6500564720763
0.86,0.373432143520612,74.3209542787277,74.528050792781,0.0172923932503428,0.416531289229033,0.337708503007889,-0.142915634836126,2.07306934287034
0.87,0.451115662028069,74.1510820508094,74.528050792781,0.0284693578319959,0.397727899549914,0.439983367919922,-0.217663289252937,2.8147201195863
0.88,0.528811478673438,74.2589900503054,74.528050792781,0.011184914787637,0.411026680229652,0.392166018486023,-0.11820546763703,2.44858709514066
0.89,0.606511734737246,74.1515584441228,74.528050792781,0.000716751724512299,0.470117524321685,0.45286551117897,-0.0381108623260607,2.43815680614374
0.9,0.684205707387582,74.167975747687,74.528050792781,0.0318177609563314,0.405049755715433,0.463820397853851,-0.227547024417607,2.90359478934377
0.91,0.761888415833798,74.1600897319106,74.528050792781,-0.00402091264668658,0.400444526091661,0.43592694401741,-0.0147463783600046,2.77169793359419
0.92,0.839581886776358,74.2289341374795,74.528050792781,0.0219036564183182,0.404531758508933,0.390548557043076,-0.18449933211772,2.49321633654687
0.93,0.917254787974507,74.1311717026686,74.528050792781,-0.025999500902426,0.393805000974236,0.442864298820496,0.116064877224623,2.89333550759132
0.94,0.994981884961843,74.1330992122985,74.528050792781,0.0145564249463212,0.383475839990996,0.415625482797623,-0.134573593113734,2.75242052198344
0.95,1.07266414023813,74.195756410132,74.528050792781,-0.0621432787657235,0.402283832698027,0.35609894990921,0.308510975056329,2.2854802486782
0.96,1.15037938710419,74.2449912339219,74.528050792781,-0.0233680622230351,0.393992170964435,0.357134133577347,0.0813608737112073,2.32581939124097
0.97,1.2280570414888,74.1957400923808,74.528050792781,0.0250278536753668,0.43366417649352,0.458133161067963,-0.19942264598276,2.69888953534471
0.98,1.30576644133703,74.1519768729384,74.528050792781,-0.0348209802055882,0.373729214243149,0.427800565958023,0.172839512303051,2.87497669970351
0.99,1.38344474335763,74.1713226313227,74.528050792781,-0.041166695816207,0.399300659870854,0.395091325044632,0.217136637093235,2.53415934533611
1,1.46113807770197,74.1637373412276,74.528050792781,-0.0071403550893642,0.424333240013976,0.48771196603775,0.0221026609843359,2.96390128425847
1.01,1.53881069205024,74.222965685519,74.528050792781,0.0458089622209108,0.420918471941789,0.484208256006241,-0.289286007449222,2.98138931255065
1.02,1.61653414349917,74.1957116621968,74.528050792781,0.0160480944186716,0.425543361024918,0.492825627326965,-0.108383726555951,2.97450028353302
1.03,1.69422725824196,74.1606733907333,74.528050792781,0.0342175349785652,0.381269731702037,0.390018612146378,-0.223205659544917,2.60029000291325
1.04,1.77191521503652,74.1331531310204,74.528050792781,0.105574448975301,0.395734708823044,0.424222737550735,-0.664669572012559,2.75437408440971
1.05,1.84959805664436,74.2447930775102,74.528050792781,0.0628869707367655,0.389329286141223,0.384490191936493,-0.396370143787885,2.55835114526415
1.06,1.92731037926026,74.2008249228169,74.528050792781,0.0502083233937412,0.438753570377002,0.450807154178619,-0.329585994379947,2.64209481967721
1.07,2.00498342399501,74.2559257998304,74.528050792781,-0.00132959448112951,0.422074539211871,0.399026602506638,-0.042815792267232,2.45331806273757
1.08,2.08267024533621,74.1946330010539,74.528050792781,-0.00415539878636884,0.500859162399174,0.500759482383728,-0.0358722074260852,2.61565689148689
1.09,2.16037157174863,74.2647852698771,74.528050792781,0.0115614970872738,0.412163093640622,0.356665194034576,-0.135698336536993,2.26134465633735
1.1,2.23807104697999,74.157264547083,74.528050792781,-0.0594622734524977,0.461993569979841,0.433189690113068,0.295880593841363,2.41403580303968
1.11,2.31576761435913,74.3103045804851,74.528050792781,0.0124268962727723,0.414448432775915,0.335712343454361,-0.154364521922908,2.11024184482498
1.12,2.39345379848833,74.1676445371268,74.528050792781,0.00824670420713292,0.398007645562711,0.419960349798203,-0.127808374475501,2.72471165277597
1.13,2.47115450244304,74.2834633072262,74.528050792781,-0.00201079829230839,0.399899446849276,0.312936007976532,-0.0586230659078676,2.06409936624034
1.14,2.54886670838966,74.1669855911427,74.528050792781,0.0315401608853407,0.383472606700378,0.366973459720612,-0.253239763364642,2.45016453279919
1.15,2.62656586011412,74.2492302618096,74.528050792781,-0.0238180851653103,0.390121146753172,0.355074346065521,0.0824608548750632,2.33858679990766
1.16,2.70424720294022,74.1626023601049,74.528050792781,0.0318401910678146,0.41987770967495,0.488005697727203,-0.231716374109734,2.97081869894298
1.17,2.78195733344616,74.2012703919527,74.528050792781,-0.0717425451048323,0.349203476590007,0.353751808404922,0.387770446706767,2.57715830924079
1.18,2.85962901137744,74.1523376824376,74.528050792781,-0.0616914674133182,0.394360558908159,0.39595040678978,0.324916800968793,2.58582256785293
1.19,2.93731831553576,74.178837470479,74.528050792781,0.0205981821351062,0.402014891502795,0.414673864841461,-0.180369027074235,2.67679262388614
1.2,3.01498638455715,74.185698671071,74.528050792781,-0.0201429731435485,0.428566230731344,0.486540913581848,0.0813833280506106,2.97777262362508
1.21,3.09272005759985,74.2213652863441,74.528050792781,-0.0808576517007913,0.360263039240325,0.345331311225891,0.451827618578785,2.49081127084545
1.22,3.17038522954203,74.2023201725039,74.528050792781,-0.0649920575792628,0.433092510341866,0.470398217439651,0.359060476094884,2.83100631637577
1.23,3.24809583712805,74.1648925459982,74.528050792781,0.0180302160469216,0.39151827200293,0.394385874271393,-0.148908832026079,2.617776975076
1.24,3.32577899712368,74.2132455212295,74.528050792781,0.00442862743644566,0.396931042734714,0.386546164751053,-0.0684915503372691,2.5347397028448
1.25,3.40349742104212,74.1603194578128,74.528050792781,-0.0639744419948271,0.365915775670158,0.363423138856888,0.352461563104784,2.56070730123255
1.26,3.48117738874183,74.3094769398763,74.528050792781,-0.0231202660084013,0.444697477639114,0.414604097604752,0.135309005533831,2.40290056276031
1.27,3.55887906076067,74.1480918058224,74.528050792781,0.041980444107531,0.397288181212331,0.421138256788254,-0.249047069918643,2.73538335604111
1.28,3.63657513226501,74.2370715816656,74.528050792781,0.0805714630116863,0.368164149878088,0.312025010585785,-0.498537039205754,2.2324648141921
1.29,3.71428709766342,74.2113735594637,74.528050792781,-0.0481813545122421,0.458731956948549,0.524645924568176,0.293334401550274,2.94821229341068
1.3,3.79196871152354,74.1925611877947,74.528050792781,0.0415281790600619,0.427431292597464,0.500563323497772,-0.254231397897514,2.99489807093088
1.31,3.86967688912385,74.1316197976135,74.528050792781,0.0560952629442807,0.382350001453448,0.3967005610466,-0.364945934813405,2.63940251669761
1.32,3.94735392109325,74.2424503856687,74.528050792781,0.0894950238276347,0.38018640179469,0.377072542905807,-0.570442984957557,2.55079456986972
1.33,4.0250625976226,74.1808449257089,74.528050792781,0.0392550341711828,0.435428596704964,0.451062113046646,-0.269329015849431,2.650698505058
1.34,4.10273954604181,74.3106923603023,74.528050792781,0.0103596210251913,0.420694540547894,0.350485354661942,-0.104740285493524,2.1544509101509
1.35,4.18044139430638,74.1969392860843,74.528050792781,0.0540961560601401,0.504548785520168,0.495266973972321,-0.3609332324041,2.5087900358592
1.36,4.25813275471776,74.2621382807194,74.528050792781,-0.0129860788695385,0.424245357853814,0.425634473562241,0.0495406668665584,2.57532380014335
