t,theta,omega,r,i_d,i_q,i_q_ref,v_d,v_q
0,0,0,268.65618141237,-8.74126813449215e-25,0,0,0,0
0.01,0.0625943354445453,123.044189202018,268.65618141237,0.0835990643953286,7.47003839520702,10,-0.622603590920169,19.0712331690912
0.02,0.256358945043656,244.518969373704,268.65618141237,0.242735798295569,7.62299510027161,10,-1.89434173711196,21.6574602954248
0.03,0.533893121064826,267.496584528702,268.65618141237,-0.104781055821089,1.55077848773158,1.78738355636597,0.0631160021542885,9.43780725403147
0.04,0.813694035051856,267.196703480009,268.65618141237,0.0199922267519058,1.56116597214766,1.79631304740906,-0.673565054647479,9.62540531805916
0.05,1.09352911889544,267.234933846983,268.65618141237,0.0472072698883315,1.63709124057836,1.75817954540253,-0.853733711032932,9.09375133363692
0.06,1.37337546826436,267.220751359417,268.65618141237,0.100467900367404,1.71518559851298,1.75394284725189,-1.17615270911573,8.73430322473509
0.07,1.65324919204742,267.249618272089,268.65618141237,0.0433619892356863,1.68831619470316,1.77005350589752,-0.840598744108538,9.09253315118084
0.08,1.93313667679424,267.176810625511,268.65618141237,0.029084819297841,1.66579304675956,1.64456844329834,-0.763589312524439,8.55082857999345
0.09,2.21302789132375,267.183217868005,268.65618141237,-0.0737503091972243,1.49041813268262,1.56278169155121,-0.151667490080228,9.17804661698717
0.1,2.49291962270804,267.371009108748,268.65618141237,0.0152287331905022,1.53304777202608,1.57369792461395,-0.700879045860703,9.03428742915569
0.11,2.77282047438518,267.385081976323,268.65618141237,-0.0271001371458549,1.50779346192074,1.65123414993286,-0.462642906724751,9.67692681561966
0.12,3.05272487414667,267.313372147828,268.65618141237,-0.00510420089667862,1.56937264308742,1.66899299621582,-0.602493609597456,9.42991665052342
0.13,3.33263393582019,267.351112097627,268.65618141237,0.0661129291607003,1.6807949464857,1.75303292274475,-1.03928536066621,9.28681604544197
0.14,3.61254655481932,267.273221406162,268.65618141237,-0.0177102398941192,1.80672011320239,1.77894425392151,-0.527321517641193,8.70301264685135
0.15,3.89245749013268,267.321714986992,268.65618141237,-0.0174149887982867,1.79016880979118,1.72951853275299,-0.522845480471945,8.53209199207134
0.16,4.17236772393059,267.244813981616,268.65618141237,-0.00122129463991505,1.64772920344167,1.60157191753387,-0.639159694457203,8.6480171435599
0.17,4.45229353986092,267.31568634832,268.65618141237,0.0370533043758885,1.47175313288592,1.44695484638214,-0.88309764266038,8.77952499580733
0.18,4.73221190645663,267.421631463562,268.65618141237,0.000104332794426815,1.53474231012975,1.62141704559326,-0.65635213697556,9.45230220907029
0.19,5.01212874766332,267.521669410872,268.65618141237,0.101642494308662,1.57339257562682,1.64561200141907,-1.26857533984411,9.35833220611567
0.2,5.29205427825528,267.338674722248,268.65618141237,-0.00773532054180581,1.55884191319168,1.6182724237442,-0.6023548139477,9.26895921056594
0.21,5.57197389906964,267.34158533413,268.65618141237,-0.0119578334507526,1.72669629731769,1.74946558475494,-0.577502065431646,9.04617861371203
0.22,5.85189402324451,267.289001223045,268.65618141237,0.00548107815205406,1.69031768609637,1.70536959171295,-0.689200975042407,9.00360145710877
0.23,6.13180288862399,267.251864200725,268.65618141237,0.0413638956003453,1.77428088851088,1.77229154109955,-0.905115789106324,8.93166381308458
0.24,0.128556593520574,267.192142000041,268.65618141237,-0.0603436103595885,1.51169069680267,1.5321524143219,-0.306100056003349,9.05320756308479
0.25,0.408473625997759,267.301974389066,268.65618141237,-0.0471142009570656,1.49697848805505,1.54934668540955,-0.389513819361376,9.25755121414599
0.26,0.688383387550756,267.424307048266,268.65618141237,-0.00820427876239951,1.61357463001057,1.63295757770538,-0.629420360984656,9.07319669875917
0.27,0.968309034633867,267.330799189264,268.65618141237,0.0608983709152665,1.66710663967403,1.72045266628265,-1.0504506351363,9.25648253180715
0.28,1.24822473314549,267.306699952661,268.65618141237,0.0266681961965017,1.63125931173849,1.67936015129089,-0.835079067053038,9.2230705360053
0.29,1.528145513392,267.350314737684,268.65618141237,0.0175149384355406,1.73328021488399,1.74887919425964,-0.754975302384543,9.02697738937025
0.3,1.80806497763061,267.279039552277,268.65618141237,-0.0101809212385696,1.6829785350474,1.70555102825165,-0.584586703621816,9.07977896529879
0.31,2.08798927071163,267.282167782153,268.65618141237,-0.0672478295416374,1.76089932699893,1.74507975578308,-0.233182974085699,8.85150239869852
0.32,2.36791486051589,267.284700928639,268.65618141237,-0.0125473457267293,1.62378832793392,1.57214760780334,-0.584957709478621,8.6339447090688
0.33,2.64784627831617,267.333087401264,268.65618141237,-0.0571286458804987,1.51582522550666,1.55467700958252,-0.309973279143609,9.16970784261189
0.34,2.92774978987107,267.428873241113,268.65618141237,0.0452258034172383,1.60226808727108,1.68311512470245,-0.9172901106092,9.43548621605743
0.35,3.20766063561751,267.334718770911,268.65618141237,0.0118945469651849,1.56152670022924,1.65516591072083,-0.712729901511507,9.52028548773034
0.36,3.48758933842398,267.321187727033,268.65618141237,-0.0367655820173366,1.63546019656156,1.66000735759735,-0.395118702087459,9.08936024500981
0.37,3.76751633211346,267.289975458677,268.65618141237,-0.0115320151913881,1.68687356823469,1.68813157081604,-0.537207348721853,8.94405376053646
0.38,4.04744183456378,267.274051535065,268.65618141237,0.0478267919122148,1.78668005286742,1.75207257270813,-0.891182668823927,8.73010945376832
0.39,4.32736558962376,267.287219070055,268.65618141237,0.059778311434549,1.79442297315638,1.7692893743515,-0.959599574067924,8.79598880186028
0.4,4.60728501332113,267.253133306331,268.65618141237,-0.0376737474439875,1.56251364775396,1.56785750389099,-0.369253895080726,8.98939350710849
0.41,4.88720444059054,267.375726895213,268.65618141237,-0.0537855981131533,1.62158442890434,1.60569262504578,-0.279677232290687,8.8686842010884
0.42,5.16711946141469,267.362541414045,268.65618141237,0.064680196657363,1.66544464200365,1.68033814430237,-1.00103387355605,9.04936712607789
0.43,5.44704645154853,267.350338321828,268.65618141237,0.0829453563576151,1.64370067906256,1.7276805639267,-1.12502975514312,9.43890811029682
0.44,5.72695587365895,267.313969106106,268.65618141237,-0.0498205696511922,1.65671182316278,1.72430169582367,-0.321336945911396,9.35376571362296
0.45,6.00689102901178,267.292787003858,268.65618141237,0.00824480106969705,1.67795492476152,1.6681010723114,-0.660080005350114,8.87282860694512
0.46,0.00362573763300666,267.352862304583,268.65618141237,-0.0043945173622584,1.80642639466069,1.74805343151093,-0.578092602680077,8.59044685184683
0.47,0.283555639176848,267.320974680725,268.65618141237,-0.0783248431116214,1.73025940213208,1.66188526153564,-0.146440805808311,8.52683685377693
0.48,0.563477127989369,267.298806489719,268.65618141237,-0.00533196374687106,1.50890157563263,1.53974235057831,-0.600650567671506,9.13558586296
0.49,0.843395911437225,267.403297435552,268.65618141237,-0.0755216618360626,1.59811904314668,1.61174559593201,-0.182410059085561,9.03638344924777
0.5,1.12331570214744,267.437368915571,268.65618141237,0.0983061873229601,1.65134584029062,1.73720264434814,-1.22908701313488,9.45614277445737
0.51,1.40323747180989,267.317144750542,268.65618141237,0.03690185081815,1.64995567978351,1.71300232410431,-0.864865018209624,9.30984037306935
0.52,1.68316900572795,267.317760513174,268.65618141237,-0.0244201560306037,1.66917373993732,1.68213975429535,-0.502209341044859,8.9912929144762
0.53,1.96309312184297,267.306084616237,268.65618141237,0.0191070248510393,1.69234787581667,1.69432055950165,-0.750903354829318,8.93092002960859
0.54,2.24301237142634,267.222493947689,268.65618141237,-0.0198486865561235,1.75410777120769,1.75541603565216,-0.516755235114338,8.94033954107902
0.55,2.52293422404468,267.300319114988,268.65618141237,0.0182085903740724,1.73036213352475,1.66193103790283,-0.749937525704703,8.53040403889335
0.56,2.80287077086156,267.380079167202,268.65618141237,-0.000745193107363429,1.51475091950332,1.45124018192291,-0.650758582232569,8.54388454174808
0.57,3.08278499748702,267.380551999134,268.65618141237,0.00385766420013123,1.59626079975516,1.6049712896347,-0.689505555478545,8.98739238884966
0.58,3.36270058266586,267.38875907095,268.65618141237,0.0411888352445249,1.58133717897434,1.72107911109924,-0.907539994000741,9.77471904193776
0.59,3.64262760389312,267.341616398425,268.65618141237,0.0574431818241866,1.5364110396502,1.60815000534058,-1.00289015040669,9.35185266260726
0.6,3.92254490186992,267.34396947408,268.65618141237,0.0312140796987406,1.73485405149273,1.77053034305573,-0.843952316013678,9.14472317325207
0.61,4.20246473448951,267.261182449332,268.65618141237,-0.00763548382017709,1.78222545681655,1.74795579910278,-0.63466948716141,8.73429305249652
0.62,4.48239468292243,267.289236647341,268.65618141237,-0.100923721084903,1.76468579007756,1.72422969341278,-0.0598698350026726,8.69055132577479
0.63,4.76231597972457,267.263328590613,268.65618141237,-0.0374788993044493,1.5722438021553,1.5725029706955,-0.435469603038356,8.94151875192958
0.64,5.04222226854557,267.399372457451,268.65618141237,-0.0256906224132968,1.64963775075218,1.66453731060028,-0.496998196214896,9.05599782663111
0.65,5.32214118003397,267.3929222474,268.65618141237,-0.0525502435332419,1.53811177932433,1.65072512626648,-0.339855630921027,9.64409224971461
0.66,5.60205558323122,267.414857646628,268.65618141237,0.0705294719741303,1.59141157245602,1.71247565746307,-1.06932676338283,9.69443532385873
0.67,5.88199626766925,267.378676709415,268.65618141237,0.00557064494831039,1.56082027905852,1.60358893871307,-0.690854962892152,9.19038383055745
0.68,6.16191620863411,267.278680108385,268.65618141237,0.0147677077952482,1.68327568714407,1.69991397857666,-0.742036848388608,9.03314763434303
0.69,0.158656788681501,267.234692187432,268.65618141237,0.0455925662472769,1.77952949151026,1.76726496219635,-0.923809998342482,8.85669941735297
0.7,0.438595114276279,267.267164757575,268.65618141237,0.0869960201483156,1.7543356079113,1.69283986091614,-1.16473739742344,8.54724333566632
0.71,0.718523296944745,267.264998492031,268.65618141237,-0.0432246165842359,1.51935049513716,1.55283379554749,-0.380956745370037,9.11891289776296
0.72,0.998448653322466,267.365274864397,268.65618141237,-0.0164083606939712,1.62974597620683,1.60665762424469,-0.543413801070034,8.77464873202702
0.73,1.27836024248759,267.452155382194,268.65618141237,0.0444562555783798,1.71809100847652,1.74543881416321,-0.916610504933834,9.08839510028067
0.74,1.55828501675938,267.308829258227,268.65618141237,0.093945746056041,1.61290326328883,1.70838856697083,-1.2178904997691,9.48156795523804
0.75,1.8382027975159,267.229944027497,268.65618141237,0.0684327198499644,1.61751869110791,1.6784520149231,-1.06882953921467,9.27540593079775
0.76,2.11812130886658,267.372671233427,268.65618141237,0.0339750613568753,1.74776941604344,1.79105949401855,-0.831419827543702,9.18391737978192
0.77,2.39805154753013,267.26366271576,268.65618141237,-0.0575426202437131,1.78590517938781,1.77110457420349,-0.262448070651885,8.82976157387261
0.78,2.67797908194095,267.284697631529,268.65618141237,-0.013317315081024,1.67572347401432,1.64695179462433,-0.547405233882109,8.74829424173549
0.79,2.95789770802446,267.321153519258,268.65618141237,0.0408206747663981,1.52836486967666,1.55041801929474,-0.866334529411564,9.06353416612746
0.8,3.23781804926538,267.401159380333,268.65618141237,0.0324053724457222,1.52751625445087,1.59261167049408,-0.830907789592059,9.3240426615889
0.81,3.51772608314004,267.346721633863,268.65618141237,0.126156164068533,1.59221555276822,1.68383300304413,-1.40403435243643,9.48950703221783
0.82,3.7976470829523,267.270684059938,268.65618141237,0.043169815458437,1.52955289497244,1.64472782611847,-0.930124082351008,9.626027699639
0.83,4.07757385862584,267.303312459639,268.65618141237,0.00916128809260097,1.67173542722112,1.72594475746155,-0.729033644792716,9.25612352520978
0.84,4.35749791300731,267.335211010208,268.65618141237,-0.0536147839539299,1.71670184924746,1.71696531772614,-0.348897114117487,8.93003365381995
0.85,4.63741530782767,267.253898890643,268.65618141237,0.00149969656686966,1.80628702345468,1.80800592899323,-0.661980511178845,8.95510515288332
0.86,4.91735258355741,267.226680235108,268.65618141237,0.00642279729299491,1.64070361710798,1.5706444978714,-0.712792125131379,8.51389153505117
0.87,5.19726975632105,267.296950732112,268.65618141237,-0.0254871507520107,1.56996171934092,1.50886595249176,-0.533155357779495,8.57983955806073
0.88,5.47720241736999,267.45319922094,268.65618141237,-0.0717694495090225,1.53626267495318,1.63199698925018,-0.241290168102347,9.49446951803663
0.89,5.75711349743261,267.379479325395,268.65618141237,0.0498042367081474,1.56973249134067,1.72771239280701,-0.955942767227975,9.86661413844869
0.9,6.03702808417851,267.259530351651,268.65618141237,0.0447771090672942,1.57069815377262,1.69811463356018,-0.924710631041442,9.68527536991557
0.91,0.0337601208832119,267.235897665128,268.65618141237,-0.0165511075606379,1.63420957682729,1.67558538913727,-0.539984324183259,9.17586282869357
0.92,0.313678559291031,267.296121680246,268.65618141237,-0.048801668646123,1.82106916698265,1.80151665210724,-0.34581181263986,8.82341019574375
0.93,0.593606205258443,267.251613621332,268.65618141237,-0.0200642077411179,1.68344024241148,1.63203978538513,-0.526497334434728,8.632869967739
0.94,0.87354663250337,267.315047435894,268.65618141237,-0.0184351493887931,1.61814095083114,1.63209342956543,-0.543867054674509,9.00524661949945
0.95,1.15346759684479,267.287061768745,268.65618141237,-0.134542532726517,1.51588025601178,1.50547909736633,0.145114777366891,8.86012132017121
0.96,1.43338271141464,267.398338217982,268.65618141237,-0.0361909429315177,1.53657343664126,1.63597226142883,-0.434171139036263,9.52505064248597
0.97,1.71329292355276,267.403938805134,268.65618141237,0.0331421329947611,1.56776543025739,1.6352356672287,-0.844971434344175,9.34149580341276
0.98,1.99320970903146,267.306716716073,268.65618141237,0.0111451208476219,1.62701039335106,1.67846810817719,-0.720716138898578,9.24391226794116
0.99,2.27312540747822,267.317976780013,268.65618141237,0.0227597876103496,1.69987218768976,1.71844863891602,-0.781137751247567,9.05561120816088
1,2.55305234873511,267.342136633004,268.65618141237,0.0841103357946699,1.80613483336108,1.74551153182983,-1.16680880857121,8.57493862118981
1.01,2.83298611853776,267.289602128928,268.65618141237,0.0281763634546666,1.63378080231437,1.62524282932281,-0.855108936066238,8.87930067393264
1.02,3.11291587000687,267.254487401603,268.65618141237,-0.0144091771088517,1.56863859446354,1.55926394462585,-0.59757476273187,8.87300612837178
1.03,3.39284760959058,267.281906390671,268.65618141237,-0.00436974909713306,1.43353377169495,1.45062565803528,-0.666619056489612,9.02017214301491
1.04,3.67276012189951,267.411344557235,268.65618141237,-0.020015609951922,1.62899796885531,1.67063772678375,-0.561259676603575,9.17278354074704
1.05,3.9526747487896,267.324725499142,268.65618141237,-0.0075712261728802,1.57832969609038,1.70135927200317,-0.602962912423574,9.66494739994339
1.06,4.23259969932064,267.330528546409,268.65618141237,0.118406466176371,1.67828274422141,1.77742731571198,-1.37928337838144,9.50949512208901
1.07,4.51252966012098,267.301451676039,268.65618141237,0.00980094014279914,1.75726550168565,1.71790707111359,-0.734345500789721,8.66729884963407
1.08,4.79245631527991,267.316617967523,268.65618141237,0.00104587720690763,1.6943824610435,1.71748638153076,-0.679728170200472,9.04204639115404
1.09,5.07238618208185,267.268928332274,268.65618141237,-0.0684932407385551,1.70928357142842,1.63612842559814,-0.286593436688209,8.46057943512539
1.1,5.35231414960747,267.281365399062,268.65618141237,0.00269433721790158,1.51531574462403,1.54198849201202,-0.707315693850781,9.06003293130713
1.11,5.63222375288881,267.445078476096,268.65618141237,-0.00911173343103999,1.65521305341972,1.66832637786865,-0.627459999462795,9.003044198161
1.12,5.91214085136835,267.397697853879,268.65618141237,0.0340613713046691,1.56814725981075,1.61345827579498,-0.88293758440164,9.1931276973367
1.13,6.19206090255867,267.336455743231,268.65618141237,-0.0156861479482141,1.59342361324359,1.68758416175842,-0.558458776850864,9.47269814943012
1.14,0.188794058690224,267.291945533728,268.65618141237,0.00502558619134696,1.6131341079689,1.64132010936737,-0.666980473455625,9.07986208705366
1.15,0.468707009651155,267.292769515865,268.65618141237,0.0325032190723553,1.79643108704035,1.74731075763702,-0.830979713433167,8.62988398949254
1.16,0.748630479776942,267.323908499509,268.65618141237,-0.0720190308854612,1.68968887468258,1.7114349603653,-0.214632539593443,9.06003216883125
1.17,1.02855179128419,267.294248144765,268.65618141237,-0.0247449129882074,1.73871261248926,1.70254576206207,-0.497836502948839,8.72171074667885
1.18,1.30848204645989,267.298592963357,268.65618141237,-0.102541249812021,1.50274270633762,1.53754031658173,-0.0204991417865508,9.14213037149054
1.19,1.58840468694626,267.422558607095,268.65618141237,0.0385793637574049,1.57743261666682,1.57519471645355,-0.875088426773365,8.91752870388076
1.2,1.86832443664666,267.419688086438,268.65618141237,0.0346133939104757,1.59220205770542,1.74710512161255,-0.853633822054859,9.85064991280423
1.21,2.1482512271624,267.328348934528,268.65618141237,0.0025395520053213,1.61227445044992,1.70682561397552,-0.635676278491716,9.47647339100773
1.22,2.4281710803065,267.320844904249,268.65618141237,-0.00279644333227475,1.68408773124105,1.73700499534607,-0.606278595709764,9.23231824223184
1.23,2.70809270342367,267.279264980068,268.65618141237,0.00608906164427453,1.68937179822544,1.72382497787476,-0.649971453314441,9.12968254012348
1.24,2.98801019577004,267.251046048321,268.65618141237,-0.0369734583852629,1.75409425514977,1.72889220714569,-0.395992280637848,8.78581698703259
1.25,3.2679432937536,267.245985988676,268.65618141237,-0.109440160348499,1.61956352344,1.59392213821411,0.0391595585988134,8.77776695056893
1.26,3.54785933236591,267.357711561606,268.65618141237,-0.00720933505856314,1.52756645190809,1.52403628826141,-0.586759998300996,8.92302648021202
1.27,3.82778128507618,267.489150926695,268.65618141237,0.0308549479436298,1.52644420744671,1.60084974765778,-0.805948077499473,9.3831376346167
1.28,4.10769200299317,267.314286140226,268.65618141237,0.0472636289324375,1.55053118561848,1.69771671295166,-0.921368788321046,9.82204790175176
1.29,4.3876200360334,267.329210571506,268.65618141237,0.0129555302248912,1.58356973068358,1.67925238609314,-0.691807812349759,9.49829730257452
1.3,4.6675339286563,267.282099480873,268.65618141237,0.057319852799562,1.67863947626713,1.69852423667908,-0.968013056249811,9.05869734710528
1.31,4.94746715598488,267.338471322885,268.65618141237,0.11064175459245,1.80414998109201,1.74986386299133,-1.3055529769249,8.60451627335614
1.32,5.22738895009388,267.281945707049,268.65618141237,0.0818226689893881,1.79351413726108,1.74984979629517,-1.13819173040339,8.67570107376449
1.33,5.50731464162068,267.232761469275,268.65618141237,0.00796664650459022,1.5695195320588,1.58195376396179,-0.693487797553722,9.01276958480859
1.34,5.78723719414207,267.346248300448,268.65618141237,-0.00130215291849178,1.63456252202244,1.60899412631989,-0.618458705572846,8.78989857769152
1.35,6.06715075694982,267.422184178987,268.65618141237,-0.0275405507517342,1.65834821020244,1.7439136505127,-0.444676346776321,9.46532197836859
1.36,0.0638924489235464,267.335040759757,268.65618141237,0.12396047161673,1.62857976036855,1.74798703193665,-1.35792852284979,9.64912392077879
1.37,0.343810936174648,267.296854480218,268.65618141237,0.0861502853774117,1.65811405477688,1.74334347248077,-1.1492208248375,9.44365369609874
1.38,0.623731468390737,267.346957717361,268.65618141237,0.04947861745676,1.73354061158612,1.79572212696075,-0.920352337393583,9.31392430341594
