t,theta,omega,r,i_d,i_q,i_q_ref,v_d,v_q
0,0,0,112.800852554655,-2.27829570247189e-24,0,0,0,0
0.01,0.0615352779139715,116.639741381175,112.800852554655,0.127304636791995,4.72839935627668,5.93133687973022,-0.87744655184183,10.6913557303336
0.02,0.179216383611035,112.234856494514,112.800852554655,0.00340942917924955,0.836678854208897,0.825017988681793,-0.125949140666665,3.21049343829192
0.03,0.296729768047491,112.174883596636,112.800852554655,-0.0163888417484303,0.786833804756299,0.755025625228882,0.0224001382340726,3.12345680638356
0.04,0.414255690868329,112.23910968932,112.800852554655,-0.00667185317798777,0.697444455716019,0.728934645652771,-0.0351443019990316,3.51354863589558
0.05,0.531761580299891,112.26364151725,112.800852554655,-0.020272198552121,0.640214518043746,0.619885146617889,0.0217053406794732,3.22818475643178
0.06,0.649267508510041,112.170818563391,112.800852554655,0.00558335292432365,0.689621320885638,0.74438887834549,-0.129041811343332,3.69251240264482
0.07,0.766798890270438,112.174609961983,112.800852554655,0.00236641229399215,0.673167601925788,0.665250360965729,-0.112708775311878,3.30958597492673
0.08,0.88432836575067,112.216924376173,112.800852554655,-0.0608381128224267,0.753752334060522,0.78671658039093,0.274072850516315,3.56243223086159
0.09,1.00186830203548,112.215873534034,112.800852554655,0.0234083778702048,0.668499912517241,0.639411270618439,-0.229765891813873,3.1698730503668
0.1,1.11937703038441,112.316293755386,112.800852554655,-0.0674212265973203,0.655744302682788,0.697080671787262,0.310821898557232,3.60451289433003
0.11,1.23688551258437,112.256636190895,112.800852554655,-0.0547332273746045,0.744511598185408,0.750177025794983,0.246305176147354,3.40593986517356
0.12,1.35441516631134,112.211697424527,112.800852554655,0.0752448300713195,0.708468759522667,0.741192638874054,-0.527015840239465,3.57087785616404
0.13,1.47193866474969,112.226009851081,112.800852554655,0.00759890671580593,0.745886632178399,0.74969869852066,-0.128313337899595,3.40878239243467
0.14,1.58946455035849,112.198048378275,112.800852554655,-0.0105012675464559,0.622450961877788,0.579765260219574,-0.0450829065704067,3.12861195622429
0.15,1.70697235939005,112.283508653661,112.800852554655,0.0463267043255793,0.703405401075143,0.689499855041504,-0.408367956704152,3.31275641789458
0.16,1.82450058798037,112.210474544992,112.800852554655,-0.0326591838142237,0.751309614840169,0.727092862129211,0.0815098878845285,3.24534986365516
0.17,1.94203225445074,112.188286568663,112.800852554655,-0.0246116843772787,0.773349443829387,0.703723013401031,0.0431674169081588,2.97432086479132
0.18,2.0595503021793,112.249802777295,112.800852554655,0.0437608696112226,0.812734514093753,0.748531401157379,-0.357681596014252,3.03219206419413
0.19,2.17707210912595,112.228095038097,112.800852554655,0.000672037776184908,0.639226417570899,0.621957361698151,-0.115530975436442,3.3110236269068
0.2,2.2945770203888,112.243886337129,112.800852554655,0.0871842375790436,0.704171402457223,0.789086520671844,-0.628281797014985,3.941689059487
0.21,2.41210570904463,112.198923739826,112.800852554655,0.00945200628435822,0.696553492010254,0.721126616001129,-0.140747306000209,3.57500604871892
0.22,2.52963524212615,112.202420322302,112.800852554655,0.0379943735054125,0.72708235703349,0.698185920715332,-0.3221993734757,3.25744342291107
0.23,2.64715902773089,112.181389644709,112.800852554655,-0.0211871159014807,0.758546136941602,0.708227694034576,0.0229865876174726,3.13731565569872
0.24,2.76467382782471,112.3242256722,112.800852554655,0.0257930712752446,0.715919895437514,0.704719722270966,-0.268428989200223,3.37722212650115
0.25,2.88220275765782,112.198489789623,112.800852554655,0.0410570045822865,0.676645594577811,0.680220782756805,-0.352034045641914,3.44971112263829
0.26,2.99973118638948,112.217326197118,112.800852554655,0.0141964313212214,0.802751078646941,0.735180139541626,-0.186324446150259,3.0280593363078
0.27,3.11727163298842,112.175612509181,112.800852554655,-0.076289988675844,0.752955516246943,0.710082590579987,0.381855374598179,3.16267557724991
0.28,3.23479575943742,112.254504613354,112.800852554655,-0.0783929275037091,0.632087761711077,0.642664730548859,0.395087980878434,3.48701191936516
0.29,3.35230657675321,112.249564058019,112.800852554655,-0.0104633540214902,0.711454183698507,0.713793635368347,-0.0179789523164014,3.44422705860649
0.3,3.46985314658199,112.196551833671,112.800852554655,0.0387249520605021,0.673799884779407,0.670132875442505,-0.302267840264913,3.36924998601373
0.31,3.58737507708986,112.217757582885,112.800852554655,-0.0154771056939878,0.762090310361863,0.775689423084259,0.0324041228008877,3.4918890902157
0.32,3.70489886793289,112.21538670916,112.800852554655,0.035959052461392,0.779521697806753,0.715441703796387,-0.280134817446305,3.03944717117682
0.33,3.82242714928625,112.302117469209,112.800852554655,-0.0315061715630886,0.664983880906363,0.638392150402069,0.0970157615511188,3.25859007977572
0.34,3.93995020148,112.288787107491,112.800852554655,-0.0212550169989644,0.715680643240394,0.690268933773041,0.0616074006222061,3.25033156571994
0.35,4.05748521702177,112.221548653092,112.800852554655,0.0621936256719507,0.805937449425546,0.755469560623169,-0.441765899818361,3.08335606062504
0.36,4.17502182663253,112.156694652413,112.800852554655,-0.0469268638137545,0.651956012124585,0.660906851291656,0.223242804546464,3.43789912234603
0.37,4.29254148404917,112.195037901963,112.800852554655,0.0275538165513815,0.671719394370747,0.684182286262512,-0.235404672694118,3.47191879001463
0.38,4.41006146933284,112.340500175455,112.800852554655,-0.0730696111709321,0.656725965318678,0.668795645236969,0.373285443584139,3.46080202440242
0.39,4.52758127750293,112.292666904707,112.800852554655,-0.0536811491341682,0.732875747601453,0.686323702335358,0.278637781072967,3.10744975507318
0.4,4.64511885462852,112.190627280902,112.800852554655,0.0703965753051323,0.68873279789851,0.719049990177155,-0.482845134711576,3.55648238901128
0.41,4.76263637554048,112.20364201478,112.800852554655,0.00321246429937422,0.731498891803326,0.728459537029266,-0.0743280459612951,3.38402151097976
0.42,4.88015814928293,112.186830124531,112.800852554655,-0.0468183472020516,0.608016451015627,0.581481695175171,0.208783026589706,3.24619216137616
0.43,4.99768025344028,112.278212211508,112.800852554655,0.0269250663886425,0.695364222523637,0.660729110240936,-0.239452186064375,3.18046036603248
0.44,5.11520609252914,112.243948769532,112.800852554655,0.0440818946031815,0.697693673665325,0.693963587284088,-0.322118756388292,3.3641188392228
0.45,5.23273494581995,112.218628728732,112.800852554655,-0.00880752879410002,0.762693926101033,0.770399332046509,-0.009575144401993,3.43741905134675
0.46,5.35025698028044,112.2431051885,112.800852554655,-0.00303050667462917,0.722083843390248,0.707870721817017,-0.0656806324489717,3.31876575753567
0.47,5.46778329323155,112.259554405046,112.800852554655,-0.0139331368450878,0.528256075545096,0.566267669200897,-0.0106119291336309,3.62240457555848
0.48,5.58529865054407,112.228326564738,112.800852554655,0.0506665874114702,0.683329651159532,0.722681105136871,-0.395772708010601,3.62882202345445
0.49,5.70283050597943,112.223875729781,112.800852554655,-0.027713424483483,0.722879397396802,0.750044047832489,0.084773726905491,3.54995780800748
0.5,5.8203644433249,112.21711200176,112.800852554655,-0.0173193171864545,0.799740570312229,0.746264934539795,0.0113893280544414,3.06888433501087
0.51,5.93788621195554,112.165135605097,112.800852554655,-0.0293513114458661,0.754525229843549,0.715702533721924,0.0792886744449671,3.16976873070572
0.52,6.05540529835128,112.323600717307,112.800852554655,0.0207095646371399,0.717452429355632,0.708152234554291,-0.23964150189568,3.34542781429934
0.53,6.17292697164329,112.195860415274,112.800852554655,0.0712463098011104,0.667893718665418,0.695385158061981,-0.541021280743205,3.56452344565741
0.54,0.00727209965136666,112.179501726217,112.800852554655,0.00241324690505234,0.781966599065956,0.730844080448151,-0.116686408790963,3.08767858620998
0.55,0.124798972687479,112.171634698845,112.800852554655,0.0183160629972021,0.765503416510395,0.695155262947083,-0.215196264843761,2.98670392921681
0.56,0.242323457311143,112.261320940066,112.800852554655,-0.0832960588439526,0.63106871643967,0.635731756687164,0.410021572132804,3.43886675871531
0.57,0.359831887462211,112.214766949177,112.800852554655,-0.00589371544810374,0.708574723760191,0.741457760334015,-0.0679624064089198,3.61562461563638
0.58,0.477365681944118,112.161589790368,112.800852554655,0.0290329902977738,0.670460373982214,0.699016571044922,-0.256807114376672,3.57496483644978
0.59,0.594893835410847,112.202790174268,112.800852554655,-0.0318216899278373,0.689843233675864,0.71105694770813,0.116898166843789,3.53540623833378
0.6,0.712431039488989,112.233102063054,112.800852554655,-0.0309197117186478,0.69242818097376,0.720025956630707,0.102990350973352,3.56614960370526
0.61,0.829948243337483,112.331230004579,112.800852554655,-0.0847962592949067,0.640987754803623,0.631255865097046,0.414605022350193,3.34428506127258
0.62,0.947456378494878,112.226842473093,112.800852554655,0.0326508762779592,0.725173768916654,0.780680000782013,-0.300035206892476,3.74965149702632
0.63,1.06498773861489,112.197138395817,112.800852554655,0.0582362670381734,0.782775922539018,0.725976288318634,-0.450378916840267,3.06626759098895
0.64,1.1825327780691,112.192200022018,112.800852554655,-0.0443003988203603,0.656343509601342,0.636178493499756,0.1686774412457,3.27315824391302
0.65,1.30006157977386,112.247810306817,112.800852554655,0.0379629768847813,0.708233227445731,0.706652343273163,-0.332183805711868,3.38327706836517
0.66,1.41758223516821,112.23847480194,112.800852554655,-0.0463472329857571,0.594228170979673,0.652197122573853,0.14498522896471,3.73903604804193
0.67,1.53509517573393,112.200709650896,112.800852554655,-0.0145382596153121,0.709284168883733,0.750052928924561,-0.0417370030742539,3.64862577121517
0.68,1.65261696502026,112.222507193758,112.800852554655,0.0623716171495491,0.740904338691568,0.718914687633514,-0.487188374964737,3.28701187538972
0.69,1.77015403845249,112.268619702865,112.800852554655,-0.031717653259981,0.75834378686124,0.758641719818115,0.0813342932506518,3.41529648649588
0.7,1.88768460440221,112.241002246779,112.800852554655,-0.0459379872764598,0.653343973369552,0.665761470794678,0.155407158741227,3.48449623550594
0.71,2.00521147093149,112.245180567963,112.800852554655,0.0299119867281507,0.584342175221844,0.568703413009644,-0.290485618346151,3.29554703777999
0.72,2.12273530684863,112.178924690772,112.800852554655,-0.0422677820932321,0.68682379758828,0.690305113792419,0.151802411965022,3.40929327504895
0.73,2.24026323878551,112.217432452044,112.800852554655,-0.00336706346731176,0.842508735882555,0.805109441280365,-0.0699663606389235,3.17296742445055
0.74,2.35779484144663,112.253025619348,112.800852554655,0.0427713476153183,0.813417404768703,0.755430459976196,-0.346101018623332,3.04895754011308
0.75,2.47533062082655,112.271116934295,112.800852554655,-0.0119946118132285,0.643879744544,0.587913334369659,-0.0182712234853177,3.03509025906974
0.76,2.59284348280768,112.225342620177,112.800852554655,0.0500593338220539,0.677120834179659,0.69937539100647,-0.398037832665723,3.50364297819796
0.77,2.71037144563768,112.251172843791,112.800852554655,0.0102033594735808,0.714158577727644,0.716350138187408,-0.154564068629041,3.38370887888254
0.78,2.82789748847468,112.158972216983,112.800852554655,-0.000839040596121499,0.759088959083245,0.702002227306366,-0.0726251175505969,3.04262982372925
0.79,2.94541503340169,112.166001037571,112.800852554655,-0.0551821076466812,0.645795206098436,0.696597337722778,0.244917193208488,3.70992609305416
0.8,3.0629267638102,112.346045754137,112.800852554655,0.00039536135620527,0.727244500539916,0.714904606342316,-0.0819265749351988,3.34150772518298
0.81,3.18045133420095,112.266577894732,112.800852554655,0.090330744573466,0.765658772260036,0.791193604469299,-0.602981016819778,3.55852685927877
0.82,3.29798273528935,112.236870391901,112.800852554655,0.0141205102256495,0.821552756728941,0.776969850063324,-0.15553224506388,3.1402277324107
0.83,3.41552218749742,112.235355401098,112.800852554655,0.0161997124700445,0.762839884356701,0.783251464366913,-0.170053621352851,3.51883788650548
0.84,3.53305599901865,112.285349431078,112.800852554655,-0.0918314060844463,0.636902172721011,0.632705509662628,0.459527747535044,3.3612982283793
0.85,3.65057211529018,112.239374613002,112.800852554655,-0.0104995242252604,0.711242198585381,0.717045426368713,-0.0335059577660502,3.41745380862098
0.86,3.76810992057088,112.190066915016,112.800852554655,0.0304221398695187,0.674875409767214,0.677449703216553,-0.271108761273014,3.37536738242292
0.87,3.88563139246967,112.196755079135,112.800852554655,-0.0168608711088882,0.782944755288598,0.718949615955353,0.00541065862238771,2.99672454217217
0.88,4.0031629215051,112.23297619869,112.800852554655,-0.0369704259864508,0.691445424986165,0.719224154949188,0.132788755343589,3.54776378460139
0.89,4.120672348115,112.22720539807,112.800852554655,-0.0182380734485529,0.633604455549643,0.644523322582245,0.0103017248591047,3.46040868031195
0.9,4.23819467494635,112.29557537542,112.800852554655,-0.0278730430073279,0.718054257348598,0.683222949504852,0.0868311823583977,3.17445217635852
0.91,4.35571771207833,112.232094442048,112.800852554655,0.0219911752993875,0.756110956607674,0.748401165008545,-0.214070545801357,3.34421581949447
0.92,4.47325597090797,112.216781379862,112.800852554655,-0.06088572398862,0.796161479286099,0.755890905857086,0.2888540432187,3.14584948086217
0.93,4.5907796059603,112.265705222973,112.800852554655,0.029389471771148,0.719538603983139,0.729043424129486,-0.265588591495911,3.45246110636656
0.94,4.70830688997631,112.235250104604,112.800852554655,-0.0514270342093026,0.62312299273962,0.676631927490234,0.198275618854015,3.69858979573022
0.95,4.82582443703597,112.236543911611,112.800852554655,-0.0499945952917011,0.718725131764274,0.701262295246124,0.19554242021354,3.27756429488343
0.96,4.94336654913172,112.213630885747,112.800852554655,0.0579091542534193,0.709514311969531,0.738426148891449,-0.436881474168297,3.53718363526426
0.97,5.06088710199813,112.24862602605,112.800852554655,-0.02514522304024,0.679846988252126,0.650706231594086,0.064187980966338,3.21126158208389
0.98,5.17841223731445,112.266726627526,112.800852554655,-0.0469448835627938,0.655852014245128,0.649851679801941,0.181970009532939,3.35129188879459
0.99,5.2959270626543,112.231597007413,112.800852554655,0.0233608568867045,0.695266657051287,0.708785712718964,-0.240980831261108,3.46685068446064
1,5.41344950213383,112.214922534335,112.800852554655,0.0580077817115527,0.731323605402917,0.717393457889557,-0.427341449660119,3.30340071973174
1.01,5.53098699676114,112.194703127504,112.800852554655,0.0128162098852604,0.725830111610814,0.699793517589569,-0.140445107763601,3.22406770576366
1.02,5.64850760150106,112.275073203293,112.800852554655,-0.00913799730370218,0.767285744224474,0.815297961235046,-0.0135966588057624,3.68355802479664
1.03,5.76604173050936,112.239421318086,112.800852554655,-0.0419860871270301,0.625428832146905,0.64596289396286,0.179511328662445,3.4944107385045
1.04,5.88355962515037,112.298875351684,112.800852554655,0.0353147534149915,0.724676985159455,0.753089070320129,-0.270973028417592,3.54346120738237
1.05,6.00108761034819,112.224124000619,112.800852554655,-0.0393149524884331,0.721958689551221,0.744612753391266,0.185552550042526,3.51381702142601
1.06,6.11862919589825,112.223468750448,112.800852554655,-0.0291432239528788,0.802694070123454,0.751233100891113,0.13099575154153,3.05523812843775
1.07,6.23615703277084,112.234846048878,112.800852554655,-0.0462921756349432,0.649127114361249,0.632732450962067,0.21195731719652,3.26633850950334
1.08,0.0704855312476926,112.317232098762,112.800852554655,0.0340324757561313,0.708127601162992,0.672041893005371,-0.291850299727868,3.1488255005864
1.09,0.187995944979059,112.17252488137,112.800852554655,0.0243426106578973,0.679289727633603,0.713056266307831,-0.221023075192093,3.58320742616479
1.1,0.305524695005426,112.205055912653,112.800852554655,0.0199571187700926,0.6904799554576,0.69880998134613,-0.203358322490534,3.43865551545256
1.11,0.423054350112345,112.186758171387,112.800852554655,-0.0372386114805325,0.64349166016245,0.623589694499969,0.139007115011672,3.27918932729215
1.12,0.540575855854017,112.28142839192,112.800852554655,-0.119844737303097,0.626170499690908,0.609049916267395,0.624521333521191,3.30485481180001
1.13,0.65808574001279,112.235282083722,112.800852554655,-0.00781111322593885,0.710452619124402,0.714696884155273,-0.0381499768944881,3.4342786673615
1.14,0.775603394799591,112.220164182152,112.800852554655,0.046013931095791,0.694755622041718,0.708919286727905,-0.365927243382712,3.50419692064042
1.15,0.893131169431349,112.222461454531,112.800852554655,-0.0175670321844109,0.803001958379151,0.735040187835693,0.0463975914861311,3.02506875215792
1.16,1.01066395108674,112.210343546309,112.800852554655,0.0394373012188709,0.765887359013542,0.686749994754791,-0.326356350409049,2.95948585497757
1.17,1.1281945843964,112.285345514413,112.800852554655,-0.0247707240670815,0.664584212381401,0.663289904594421,0.0413828554611086,3.41238817887645
1.18,1.24571052148428,112.252848507694,112.800852554655,-0.0333435405420708,0.713333827374593,0.715155422687531,0.108196010009185,3.43032991578638
1.19,1.36325701304212,112.146829004855,112.800852554655,0.0230597350778337,0.666076609626168,0.685868799686432,-0.225123592563059,3.51154734495118
1.2,1.48078155108196,112.217837609495,112.800852554655,0.0249767350274441,0.762892249050178,0.786366760730743,-0.236687506030912,3.54930480433293
1.21,1.5983073246676,112.183639686934,112.800852554655,-0.00624592910968136,0.662417029528049,0.666251420974731,-0.0454363521093563,3.43461411266258
1.22,1.71581401009264,112.297144200288,112.800852554655,0.0121382127261971,0.719576598866672,0.739311158657074,-0.159646442663451,3.54593962408987
1.23,1.83334309566893,112.214927444581,112.800852554655,-0.0143148029627968,0.723108057887172,0.758453845977783,0.0112909073271377,3.6272400289319
1.24,1.95088156158401,112.215440651595,112.800852554655,0.0171197511536231,0.843195387665287,0.801907062530518,-0.174123085996712,3.15486007619933
1.25,2.0684153168283,112.258794200563,112.800852554655,-0.0269361646706276,0.690482724411261,0.679375350475311,0.0963559015515599,3.33972607565668
1.26,2.18595893177648,112.268017560005,112.800852554655,-0.0507706142960995,0.650573506411498,0.6325643658638,0.235671770462836,3.26787650664739
1.27,2.30346859661172,112.201623299783,112.800852554655,0.0189878564839188,0.694856538181688,0.739938914775848,-0.193359137370956,3.65414854980978
1.28,2.42099467675763,112.176716611258,112.800852554655,0.026173501440384,0.670368874117398,0.674417912960052,-0.236499952238795,3.40478206391024
1.29,2.53853044782251,112.197692930609,112.800852554655,0.00650485956664387,0.725712024420264,0.695785045623779,-0.104043099000556,3.19605097340149
1.3,2.65605679618043,112.259396621481,112.800852554655,-0.00651456576908144,0.802168270865652,0.759506583213806,-0.0225574205769773,3.12583631380621
1.31,2.77358266627858,112.293044070234,112.800852554655,-0.0450391155454702,0.631519813580242,0.604489266872406,0.208553794290976,3.21167218500715
1.32,2.89109257796726,112.239497059965,112.800852554655,0.0357736098934784,0.688444853806794,0.714991569519043,-0.262519955577987,3.54580511915644
1.33,3.00861368041028,112.231213393238,112.800852554655,0.0440209455293023,0.753267533419943,0.744499921798706,-0.306817466847535,3.34408487447537
1.34,3.12614854410423,112.235051284966,112.800852554655,0.0554834699544071,0.696048599412381,0.686770021915436,-0.374568447130721,3.34124612640499
1.35,3.24367679928136,112.235833792646,112.800852554655,-0.0521409759243626,0.647950398163416,0.630982339382172,0.258141341326896,3.2944107695302
