t,theta,omega,r,i_d,i_q,i_q_ref,v_d,v_q
0,0,0,194.373648361025,-1.04037980333695e-25,0,0,0,0
0.01,0.0634782119827532,124.913858805744,194.373648361025,0.13658965134998,7.48593209378175,10,-0.943164564775352,18.9479799377408
0.02,0.24767191112783,194.106092999724,194.373648361025,-0.101201303468169,0.698678205623883,0.639080286026001,0.301673386618768,5.17546581312599
0.03,0.450180257741095,193.394906290396,194.373648361025,-0.0713480078130117,1.16081847974501,1.21226525306702,0.144395817151234,5.94486712559416
0.04,0.652718706398462,193.452515897125,194.373648361025,0.0372636321356852,1.08765643192957,1.20730328559875,-0.540304947289956,6.42751940843864
0.05,0.855274168503886,193.515937383691,194.373648361025,0.0551226201765001,1.14805379171655,1.16618549823761,-0.620736541740673,5.89225354828118
0.06,1.05782480671281,193.47832197236,194.373648361025,-0.030077809351223,1.20827384181987,1.23245012760162,-0.0980681789415821,5.97551632848511
0.07,1.26039443820419,193.451569021807,194.373648361025,0.0594561457721111,1.09750590300399,1.17383050918579,-0.667309519694934,6.31394342121159
0.08,1.46296525437653,193.389834057663,194.373648361025,-0.0161647310794344,1.02587571399546,1.08826947212219,-0.18800270073188,6.27687264748444
0.09,1.66551613276884,193.410355035781,194.373648361025,0.0181824820748984,1.16202195972341,1.2216055393219,-0.406916009993281,6.28983626465966
0.1,1.86809842377366,193.481706610482,194.373648361025,-0.0588591349809706,1.01512609029524,1.15429139137268,0.0520526233954752,6.77432765670674
0.11,2.07068530620047,193.450818671812,194.373648361025,0.0360475387058855,1.14679276322069,1.13961827754974,-0.501730743424199,5.90492807708448
0.12,2.27325629274129,193.498779050867,194.373648361025,0.0469219685029794,1.22955037394097,1.20527291297913,-0.558258828079315,5.80844397671673
0.13,2.47583562194449,193.500307057179,194.373648361025,-0.041393388754371,1.07416867861905,1.14276897907257,-0.0597966996866272,6.39161089047285
0.14,2.67842563686108,193.482022101502,194.373648361025,0.0536272397478841,1.17025918340365,1.15228223800659,-0.613625967513868,5.87108868604352
0.15,2.88099443674484,193.408078430695,194.373648361025,0.0579321065862377,1.07521737667056,1.1409740447998,-0.627120241083805,6.37628662663994
0.16,3.08357944769014,193.48467755124,194.373648361025,-0.0598828964039614,0.996219174810052,1.10656344890594,0.0594408398677773,6.66942660989947
0.17,3.28615932409319,193.497429903,194.373648361025,-0.0883056894380574,1.22499071955681,1.17863154411316,0.281853784456845,5.72650773378826
0.18,3.48873411339965,193.431467990519,194.373648361025,-0.0649538096063009,1.08194200983986,1.08728933334351,0.141589795400744,6.0380414803264
0.19,3.69132939491992,193.415036765998,194.373648361025,-0.0761656523529189,1.07958587084181,1.10321605205536,0.185194351609723,6.151464409925
0.2,3.89391886265925,193.439026002911,194.373648361025,0.0549137989884986,1.15257341797763,1.13413786888123,-0.599306142813946,5.88190420712797
0.21,4.09648675974631,193.467774262158,194.373648361025,-0.0207217024207337,1.03411628355962,1.02601635456085,-0.156921294667756,5.9608344342255
0.22,4.29907736770245,193.504521645752,194.373648361025,-0.0177090642878292,1.13629899407634,1.13523364067078,-0.185233591168287,6.01782038189244
0.23,4.50166565226721,193.485670272904,194.373648361025,0.0872158578769506,1.19194666980504,1.18995797634125,-0.817223292372519,5.98716617709503
0.24,4.70424492386631,193.514795389068,194.373648361025,0.0818218894604768,1.1234529686348,1.12018239498138,-0.783388622290718,5.99124969138065
0.25,4.90683154958003,193.5014847561,194.373648361025,-0.0751580105737998,1.13774411705167,1.15067529678345,0.162538546151646,6.10194714820649
0.26,5.10940556220917,193.474258453131,194.373648361025,0.0909707845130224,1.19268387779707,1.21301019191742,-0.832166827143976,6.13767263696319
0.27,5.31199317449489,193.477371108568,194.373648361025,0.0597517092427177,1.06101052624169,1.15732634067535,-0.630075334552883,6.60255665760815
0.28,5.51458835472219,193.511448786173,194.373648361025,-0.00452231500609046,1.16950103327037,1.15911614894867,-0.265067679544156,5.9559924725081
0.29,5.71716615889322,193.445378116383,194.373648361025,0.00375300073754281,1.11431532259312,1.17077481746674,-0.322241956431335,6.34325159825687
0.3,5.91975987202877,193.528647164457,194.373648361025,0.0132526697658724,1.03598299778953,1.0993732213974,-0.354096689564667,6.39096899048636
0.31,6.12234425661513,193.484534880629,194.373648361025,0.00529696481950187,1.18054006656283,1.19088530540466,-0.312007319246964,6.06942649394958
0.32,0.0417442508365395,193.456705411808,194.373648361025,0.0489938345625385,1.09743561606844,1.13709831237793,-0.592863672526971,6.22576496918021
0.33,0.244329547235731,193.459479252616,194.373648361025,0.0521057488432993,1.0811549941809,1.07622039318085,-0.596560409456123,5.97895634400328
0.34,0.446907705953458,193.411223477589,194.373648361025,-0.063723381450017,1.15389443840697,1.1734459400177,0.1205465816808,6.13292516195581
0.35,0.649497071221476,193.473256321118,194.373648361025,0.0159670302546149,1.07279347468477,1.10843539237976,-0.35541922424073,6.20929353420755
0.36,0.852087588699913,193.487684416163,194.373648361025,0.0362221063614924,1.14779950582433,1.15320074558258,-0.467419938839784,6.04083814891401
0.37,1.05466383299658,193.474970396493,194.373648361025,-0.0121040964471167,1.19479167241134,1.19683694839478,-0.157928676478266,6.01876883535596
0.38,1.25725381015511,193.506152940791,194.373648361025,0.103118118799641,1.07404047955638,1.19237124919891,-0.881057746567063,6.70499232729335
0.39,1.45985043240704,193.426638639628,194.373648361025,-0.0181826425016196,0.993880912086478,1.04037082195282,-0.127244291357153,6.2791271077622
0.4,1.66242376261864,193.424978900575,194.373648361025,0.00632240884300395,1.11592134931279,1.14466500282288,-0.304505137474933,6.17054615734508
0.41,1.86500735738905,193.536998415916,194.373648361025,-0.0235509254979377,1.03132812451904,1.16492784023285,-0.125516828478424,6.80849767556793
0.42,2.06760898868266,193.489211960529,194.373648361025,-0.0168530454501815,1.09142664638809,1.05956125259399,-0.164858642787607,5.80224149884141
0.43,2.27018735857617,193.458706233364,194.373648361025,-0.0521893283588296,1.15679892186508,1.12957441806793,0.0425576664185544,5.81823997206794
0.44,2.47276529583739,193.466153202923,194.373648361025,-0.0298794770102168,0.975652682686334,1.07181286811829,-0.12776510334022,6.57945740265639
0.45,2.67535175395232,193.445932220726,194.373648361025,-0.0954047148375729,1.19228658233162,1.15503716468811,0.284710434023353,5.78314960797965
0.46,2.87793598424565,193.453416050323,194.373648361025,0.00103949100444223,1.14894008029414,1.15418481826782,-0.267589880763155,6.0228848612154
0.47,3.08052456088597,193.466205893856,194.373648361025,-0.0785622334453862,0.976728448029227,1.09387135505676,0.175599663929043,6.71172675957744
0.48,3.28310828642579,193.501387405509,194.373648361025,0.0399061132612883,1.18492493680468,1.1755598783493,-0.501674267379613,5.95084778444829
0.49,3.48568330813781,193.472744332001,194.373648361025,-0.0550908109030682,1.15573673764073,1.19959402084351,0.0866787690700251,6.26884840444208
0.5,3.68827554102383,193.511252793524,194.373648361025,-0.0906813554914152,1.10929002196525,1.1594021320343,0.284377614903481,6.31981755804203
0.51,3.89086114053025,193.47429847075,194.373648361025,0.117840653669282,1.19016347649819,1.20902276039124,-0.962302745911659,6.11895886785463
0.52,4.09344166905869,193.507367485454,194.373648361025,2.00393479301564e-05,1.11956730740688,1.13829874992371,-0.265586062853302,6.11311050265115
0.53,4.29602905678648,193.440347024109,194.373648361025,-0.0798853958216603,1.04110368699775,1.04596245288849,0.19749714145712,6.05132053172559
0.54,4.49860514662605,193.451885216757,194.373648361025,0.0167262477426554,1.19320145935998,1.21963167190552,-0.395049127224422,6.17118649873352
0.55,4.70118926637367,193.497579367457,194.373648361025,0.0876380681967374,1.1572779089442,1.17752015590668,-0.806942376513861,6.13149158616888
0.56,4.90377936506391,193.431598940909,194.373648361025,-0.120554618262244,1.10110326840241,1.13391816616058,0.439453324089104,6.21917800009302
0.57,5.10636208783519,193.507563611282,194.373648361025,0.0544608926820389,1.20249557847044,1.19085574150085,-0.609044409712082,5.93587674510066
0.58,5.30894091115679,193.519175247894,194.373648361025,0.0590876861430502,1.09535655787649,1.19474589824677,-0.624964757421557,6.61575833979344
0.59,5.51152377760689,193.416772726199,194.373648361025,-0.082990463555641,1.13408177727817,1.18558299541473,0.249558652675228,6.34517672599148
0.6,5.71411547143494,193.424200907631,194.373648361025,0.128588971992087,1.11612037055606,1.13247358798981,-1.04021175818744,6.10266849391133
0.61,5.91670231478322,193.548058283899,194.373648361025,-0.0098734371493201,1.1292930745759,1.16240179538727,-0.201857084673956,6.21577485180379
0.62,6.11929162083441,193.43268459134,194.373648361025,-0.0507059433721375,1.10657406470315,1.09368753433228,0.0480540143029338,5.93360324229924
0.63,0.0386781992036447,193.463715550829,194.373648361025,0.0536729427855729,1.1940017213068,1.20622456073761,-0.585256729883723,6.07937521120393
0.64,0.24126256279162,193.39005193745,194.373648361025,0.0172909636691995,0.958553943133179,1.00429308414459,-0.361948372798506,6.3004618650742
0.65,0.443829291089184,193.422152532009,194.373648361025,-0.0939456700152072,1.14912117554745,1.16034758090973,0.326605913177253,6.11541686138884
0.66,0.646412525931384,193.464313368485,194.373648361025,0.00427852072046495,1.0872120648733,1.13892209529877,-0.269985438052483,6.34739685855543
0.67,0.849010892373974,193.451115935407,194.373648361025,0.0138993631925617,0.965222144523879,0.976872265338898,-0.337776749255328,6.10998827012199
0.68,1.05158568135294,193.435037985346,194.373648361025,-0.0318330406795481,1.18025139496686,1.1989141702652,-0.0600844913556803,6.14559613803627
0.69,1.25416559274553,193.514602445189,194.373648361025,0.088370219318872,1.10515590252511,1.18304407596588,-0.808319188702781,6.50184814924905
0.7,1.45676295748037,193.451559157878,194.373648361025,-0.127145515727359,1.11513347910308,1.10211253166199,0.475893329070226,5.95544484304359
0.71,1.65934378853884,193.443085661692,194.373648361025,-0.0591295706015713,1.1754927518691,1.16306972503662,0.0996159664740175,5.94634874377239
0.72,1.86193205887752,193.508319831996,194.373648361025,0.0304012403723432,1.09794699992034,1.18721675872803,-0.464767635242427,6.55714090075093
0.73,2.06453306907292,193.528068045642,194.373648361025,0.102652453688438,1.18193683718201,1.18033468723297,-0.892888332762526,6.00110976257838
0.74,2.26711236139323,193.510201150175,194.373648361025,-0.0498261088949621,1.20408315962395,1.1648485660553,0.0306278353598347,5.76388806693094
0.75,2.46969935772276,193.504320741674,194.373648361025,-0.0471808530741044,0.994887526255047,1.08637845516205,-0.0112195389198797,6.55236111669432
0.76,2.67228007361563,193.392881094262,194.373648361025,0.028041290407775,1.13864134938439,1.16145014762878,-0.437205733526505,6.1499236930376
0.77,2.8748586524721,193.454429661014,194.373648361025,0.0323791437720185,1.14884175786349,1.1960756778717,-0.470150661932474,6.29193133951104
0.78,3.07744443194346,193.436589965358,194.373648361025,-0.121473732613132,0.98190172043045,1.03635203838348,0.443638424948877,6.34771703778017
0.79,3.28003239487137,193.508442003696,194.373648361025,0.0368995233553115,1.1818728184188,1.1798050403595,-0.474959490534551,5.99643133955896
0.8,3.4826058283979,193.452302431792,194.373648361025,0.000254888553783972,1.12581930376827,1.08636248111725,-0.26889805938772,5.76841228432751
0.81,3.68519580324776,193.541152631149,194.373648361025,-0.0985124206831005,1.1117796926783,1.16816389560699,0.306874735221312,6.36212342271403
0.82,3.88777779155526,193.422193508748,194.373648361025,0.0803418961983631,1.11465020254644,1.11376714706421,-0.750240394245279,6.01492920976299
0.83,4.09036265169027,193.426195662652,194.373648361025,-0.00515951332702408,1.06697069124951,1.10304605960846,-0.249598106198828,6.22370658884876
0.84,4.29296161293123,193.477799116375,194.373648361025,-0.0512763092459848,1.06875921951464,1.07900106906891,0.0291261295000309,6.07601087124487
0.85,4.49554738265675,193.436115573822,194.373648361025,0.0982467929609799,1.15186771267939,1.13695478439331,-0.862814855225768,5.90704266346526
0.86,4.69811739115757,193.418363268711,194.373648361025,0.0437722743604568,1.05673970473902,1.14373564720154,-0.507176422871193,6.53695943663298
0.87,4.90071603536581,193.41380818315,194.373648361025,-0.109476444245606,1.0503627331567,1.0913712978363,0.405157776237237,6.26664059896038
0.88,5.10329760747421,193.423486728524,194.373648361025,0.0549246921756033,1.12484245929744,1.12023830413818,-0.584533912764417,5.97808821747492
0.89,5.30588245409186,193.638370485381,194.373648361025,0.110179851785433,1.15710819412312,1.14420461654663,-0.924915074421885,5.92720606819255
0.9,5.50846652767207,193.406975467054,194.373648361025,-0.103084169205498,1.10132390468286,1.11636555194855,0.341247881446465,6.10818656850429
0.91,5.71104736262863,193.484022582454,194.373648361025,0.137820585634683,1.19128367004239,1.22194695472717,-1.11877244982705,6.18561140969668
0.92,5.91363203661984,193.463954394912,194.373648361025,0.026611979317159,0.979426872597633,1.01448273658752,-0.456433095776438,6.22429800929406
0.93,6.11622236791904,193.449544096705,194.373648361025,0.0203939683017902,1.15145838494468,1.1426922082901,-0.427210307545157,5.95657980734159
0.94,0.0356171383461366,193.43069796645,194.373648361025,0.0883989101708659,1.12769364745171,1.1385201215744,-0.865254249270863,6.06121834000065
0.95,0.238210844450233,193.573106127037,194.373648361025,0.040262928466243,1.01652320303188,1.04878115653992,-0.563299425754862,6.19686555697136
0.96,0.440792314073629,193.415867636356,194.373648361025,-0.0482976897498878,1.0818098195879,1.10149574279785,-0.0117605077474415,6.12362132303827
0.97,0.64336409246155,193.469071708292,194.373648361025,0.0166871057350709,1.12087645772799,1.16825687885284,-0.405356688149803,6.29026800335739
0.98,0.845959122448395,193.438970139945,194.373648361025,-0.0387887318797475,0.960046406021234,1.01210129261017,-0.0684431195426012,6.32839194053976
0.99,1.04854153575679,193.398985573811,194.373648361025,-0.049901858647325,1.15377621010632,1.16113221645355,0.00214277515327094,6.04687658358802
1,1.2511208729775,193.475324257598,194.373648361025,0.0589780786578517,1.09628145300276,1.14792704582214,-0.682633132668811,6.30859917738638
1.01,1.45372034502638,193.411493280423,194.373648361025,0.0396705664054295,1.04556915396417,0.984657645225525,-0.576965948810911,5.63417926087439
1.02,1.65629425345196,193.459337844422,194.373648361025,0.00176138942079662,1.19511116339255,1.13680517673492,-0.343825080904418,5.64722259146531
1.03,1.85887059192682,193.514352448707,194.373648361025,0.103907635010652,1.06356117893628,1.16370737552643,-0.966548267876609,6.60892463633758
1.04,2.06145646002186,193.396403029094,194.373648361025,0.0082569802783094,1.07514343934392,1.10707497596741,-0.356621112927925,6.21485777185308
1.05,2.26403742530469,193.508164057883,194.373648361025,-0.0489250828578822,1.21643041484237,1.1907057762146,-0.000737477949923515,5.8553509540657
1.06,2.46661924735172,193.481179195425,194.373648361025,0.00609659566084747,0.981651539548081,1.10941278934479,-0.347650629598386,6.78758795447989
1.07,2.66920736522596,193.470314615872,194.373648361025,0.00119989324514841,1.23792040026645,1.20316052436829,-0.275017512171923,5.82078893665225
1.08,2.8717851221916,193.454947386466,194.373648361025,-0.0235562109208229,1.20886631038771,1.22784960269928,-0.129572613773955,6.13306741765824
1.09,3.07437673332815,193.485354427881,194.373648361025,-0.0699969316222224,0.977104124787058,1.12067651748657,0.1421624651973,6.89122822123973
1.1,3.27696603052873,193.433952245415,194.373648361025,-0.00920514722436916,1.07839201576709,1.09767019748688,-0.188403345559128,6.14541616889908
1.11,3.47954348018306,193.502707835578,194.373648361025,-0.00513065017395398,1.19044328642989,1.19507658481598,-0.227773408491911,6.05023957920726
1.12,3.68212950425247,193.439491876606,194.373648361025,-0.110401906833,1.01457846468681,1.069859623909,0.380522290710092,6.37828290597616
1.13,3.88471770379859,193.460830852717,194.373648361025,0.0879288252353775,1.1677812712416,1.14870262145996,-0.766950047372847,5.92219138834518
1.14,4.08730257494809,193.52322213631,194.373648361025,-0.0176233762296978,1.16808415930259,1.21916747093201,-0.149761584170784,6.32918481914306
1.15,4.2898915269521,193.477844142226,194.373648361025,-0.0228212749949058,1.09668844178558,1.14205229282379,-0.127106215590435,6.30817890468992
1.16,4.49247729245604,193.419935394555,194.373648361025,0.0120669409946815,1.16861235311616,1.17728757858276,-0.337787743925048,6.07509128756649
1.17,4.69506050402162,193.473391918623,194.373648361025,0.0208803281653138,1.08286347663513,1.13165318965912,-0.388213001489509,6.31674409615872
1.18,4.8976515489186,193.508464832878,194.373648361025,-0.020740774987286,1.14321992119014,1.15297734737396,-0.145652999253522,6.09218126953843
1.19,5.10024684464858,193.425821024798,194.373648361025,0.0247773447495891,1.16079344083323,1.15840303897858,-0.429209168114648,5.98499133342903
1.2,5.30283343168279,193.550934652747,194.373648361025,0.00805484425458602,1.09478944109396,1.09682500362396,-0.338375746158489,6.00887488378636
1.21,5.50542101799292,193.456573925287,194.373648361025,-0.101720893317335,1.12753454253746,1.18260097503662,0.310361305830623,6.33978502167622
1.22,5.70799902899281,193.389368266905,194.373648361025,0.0951263735018789,1.15992079583256,1.19988286495209,-0.859655221055688,6.23586091722388
1.23,5.91058869788021,193.501610376463,194.373648361025,-0.015443668959805,1.10817281510001,1.16298806667328,-0.193318809703754,6.32840754910436
1.24,6.11317072775,193.469723255375,194.373648361025,0.0508631910583449,1.19296535204272,1.12489628791809,-0.599750327124909,5.60337208194272
1.25,0.0325653098643421,193.462248388119,194.373648361025,0.00878986565427672,1.11456596828058,1.15328884124756,-0.350180786660425,6.23049713079638
1.26,0.235161056866964,193.569750576137,194.373648361025,0.0147768473475465,1.01775265868417,1.08215820789337,-0.367668983182001,6.38608124654529
1.27,0.437734106400931,193.483302221368,194.373648361025,0.0389535576691566,1.20936957996828,1.1402702331543,-0.519171329041367,5.60529418493437
1.28,0.640318707517824,193.452029571067,194.373648361025,0.0535150687961171,1.11670841057987,1.1894166469574,-0.622130623138485,6.43816201057794
1.29,0.842912280027136,193.466382971733,194.373648361025,0.0580206711032931,1.04376023411042,1.08657944202423,-0.61751052869157,6.2725851950475
1.3,1.04549138304113,193.469745397646,194.373648361025,-0.110947341602266,1.17998810611448,1.17416214942932,0.390770986222072,5.98500812445065
1.31,1.24807210836339,193.504625143465,194.373648361025,0.0326187285837458,1.12416472473107,1.17653918266296,-0.483647798852823,6.32840202669544
1.32,1.45066811859545,193.497801951454,194.373648361025,0.0107763699200671,1.11523448987306,1.09996604919434,-0.347532969229341,5.92480648723266
1.33,1.65325227596929,193.461650766502,194.373648361025,-0.044820643485815,1.16575191173882,1.12424850463867,0.00488034127110754,5.75187408748706
1.34,1.85583549013527,193.4946567831,194.373648361025,0.114546611216519,1.08451816888009,1.18479931354523,-0.987390707540793,6.59868410439738
1.35,2.05842442144936,193.437319473225,194.373648361025,0.00998597232455789,1.02149293325546,1.04205799102783,-0.335765788659346,6.13168235801356
1.36,2.26099338329325,193.444908259138,194.373648361025,-0.00560448914361183,1.17457592275003,1.17471647262573,-0.239709985811462,6.01324243316875
1.37,2.46358994845431,193.493132793927,194.373648361025,-0.0413558987276694,0.994618644291908,1.1190550327301,-0.0443912876327874,6.74791910957513
