t,theta,omega,r,i_d,i_q,i_q_ref,v_d,v_q
0,0,0,321.768369245986,-2.29871150903881e-24,0,0,0,0
0.01,0.0606364403738987,118.839309205958,321.768369245986,0.174130966901747,7.64486701547625,10,-1.1546328563274,17.843567533887
0.02,0.248556140670788,237.63744877712,321.768369245986,0.166253095191166,7.81087293943799,10,-1.42461186836069,20.1851224445969
0.03,0.551298643124781,318.507274896441,321.768369245986,-0.100278679739634,0.239353742427367,-0.0530258156359196,-0.281645509075807,7.36021736434664
0.04,0.886508645295357,320.150317990285,321.768369245986,-0.0717733361978506,1.8551209456316,1.85177052021027,-0.426375986254146,9.30688966358171
0.05,1.22181035226456,320.19846052597,321.768369245986,-0.00651625690453694,2.05690959409027,2.00909376144409,-0.834712393475864,9.10063486175016
0.06,1.55713912362471,320.333340031186,321.768369245986,0.109073598457549,1.90505954704083,1.99988973140717,-1.55183710982145,9.99406473886967
0.07,1.89248451235149,320.380456479921,321.768369245986,-0.120709606141384,1.8296012562774,1.83115935325623,-0.170459988911836,9.46219749543968
0.08,2.22779460800431,320.126282222703,321.768369245986,-0.0125126649190499,1.81630161678315,1.73925638198853,-0.784642749896604,9.05679663132311
0.09,2.56310813496542,320.117765626609,321.768369245986,0.0630571012397694,1.99328574854281,1.95249497890472,-1.25386614698003,9.31205277084038
0.1,2.89843949410516,320.360374412228,321.768369245986,0.107750110309273,1.92618914267715,2.00986552238464,-1.52533243886858,10.0850814974682
0.11,3.23379449678396,320.428641631222,321.768369245986,-0.141298110772169,1.76266439294893,1.75459718704224,-0.0359828800504642,9.54710867412277
0.12,3.56912517039423,320.134153952755,321.768369245986,-0.0516381267271613,1.8650336078366,1.77362167835236,-0.569324026421543,9.07287820631676
0.13,3.90443675793317,320.105905453144,321.768369245986,0.0318555699890176,1.98085225234104,1.93519032001495,-1.03498925828862,9.39102385661706
0.14,4.23976604911749,320.334755563192,321.768369245986,0.0514635736622553,2.01270776387689,2.01536965370178,-1.1635192500173,9.70214644793875
0.15,4.57510626698317,320.43303889997,321.768369245986,-0.0632928660511484,1.80719945378529,1.79695689678192,-0.489084951160477,9.66323529000091
0.16,4.91047616323228,320.2264778392,321.768369245986,-0.00790716459416863,1.78655133077907,1.6586229801178,-0.816975803622292,8.92398338601694
0.17,5.24581820087285,320.066237093132,321.768369245986,0.0162551618433135,1.97219793510145,1.97565281391144,-0.968259378209548,9.69807163648638
0.18,5.58115016338176,320.339172997784,321.768369245986,0.10209723528877,2.03604188948642,2.02403545379639,-1.49354208905788,9.62602150324964
0.19,5.91651314203607,320.435654949158,321.768369245986,-0.076415724332849,1.72740988720203,1.76452136039734,-0.423570618541427,9.9158483405233
0.2,6.25186076387943,320.212915529135,321.768369245986,-0.0385101752973004,1.77114144008542,1.70278906822205,-0.652416509347101,9.29455208093462
0.21,0.30400824765156,319.979182001284,321.768369245986,-0.0284727071449435,1.92558655922636,1.95089554786682,-0.698109705928903,9.86674411006287
0.22,0.63935062630859,320.243481327647,321.768369245986,0.0993186883513912,2.08807452354492,2.09150695800781,-1.47673943882363,9.72656403618467
0.23,0.97469243518544,320.458207029697,321.768369245986,-0.00786538623631539,1.94637921073742,2.00240421295166,-0.839506991404154,10.0674542545675
0.24,1.31005526830261,320.202685883314,321.768369245986,-0.0895658113319599,1.72843106387183,1.66122996807098,-0.343139631296357,9.32044067245201
0.25,1.64538926314411,320.04014855231,321.768369245986,-0.0684843008130773,1.91557798641664,1.86060237884521,-0.470389006332718,9.40137976412663
0.26,1.98071461945528,320.196663085276,321.768369245986,0.0861749849277814,2.11113300399767,2.19800233840942,-1.41540170801801,10.2806177478406
0.27,2.31608796319962,320.495051826458,321.768369245986,0.0588926783543953,1.92284999939558,1.96224534511566,-1.27257805437363,9.96605527798954
0.28,2.65145260968849,320.288763279378,321.768369245986,-0.112428496617812,1.80622235596974,1.72260427474976,-0.249390146933231,9.21404302582049
0.29,2.98679945806124,320.039223406368,321.768369245986,-0.0356638984465363,1.91476406804852,1.90305209159851,-0.702322081456786,9.63761514081785
0.3,3.32210550544128,320.137960561529,321.768369245986,0.0800253308593628,2.09295281011816,2.21312642097473,-1.38251070170568,10.4839347310925
0.31,3.65745917272862,320.451649006199,321.768369245986,0.0936624363695894,1.94993494623411,2.01404452323914,-1.44692593543032,10.1434658531817
0.32,3.99282556865028,320.333045526986,321.768369245986,-0.0368244431038141,1.68546840473359,1.62129068374634,-0.669013223972628,9.3705759172477
0.33,4.32817360309026,320.204937236181,321.768369245986,0.0606061972219246,1.92393902095664,1.75526261329651,-1.26078326313197,8.73052097874788
0.34,4.66350077128948,320.091080228292,321.768369245986,0.0889808474501661,2.03205564830005,2.11398077011108,-1.42387958512522,10.2508259406364
0.35,4.99885610535616,320.390348649875,321.768369245986,0.0371893505205377,1.92045262315644,2.01521253585815,-1.12040065485708,10.3161271530236
0.36,5.33424161977237,320.359302582848,321.768369245986,-0.0997995447945284,1.78611883777512,1.72028803825378,-0.308986097252059,9.31443211935755
0.37,5.66958258528838,320.107398956496,321.768369245986,-0.0455386330985684,1.88697291607013,1.81347513198853,-0.624430660366447,9.27062677492763
0.38,6.00490966747192,320.156663021748,321.768369245986,-0.00633823764635078,2.03522043167551,2.01655149459839,-0.859699743844244,9.61885795218945
0.39,0.0570741819618679,320.323156422113,321.768369245986,0.0901191335689286,1.89393541418709,1.93977880477905,-1.43494033873486,10.0007847593737
0.4,0.392437707324573,320.384788959153,321.768369245986,-0.130727450655825,1.68700666698,1.66332745552063,-0.117968567925335,9.58439005941065
0.41,0.727798359724638,320.119508768764,321.768369245986,0.00176845111076551,1.80668716646463,1.71265828609467,-0.89098365648539,9.1416180323662
0.42,1.06312511352765,320.067411098988,321.768369245986,-0.0360253586525774,1.98041408526746,1.95548045635223,-0.673282353322478,9.5714733014089
0.43,1.39844260562723,320.339561513227,321.768369245986,0.141055988780474,2.0357768474544,2.13032817840576,-1.74526191602412,10.335878298926
0.44,1.73380885736736,320.409608153515,321.768369245986,-0.0800104650475579,1.7698491158421,1.80604577064514,-0.428791829073878,9.97574930569521
0.45,2.06916264705592,320.200252314681,321.768369245986,-0.0478329534848029,1.8025563345152,1.7206916809082,-0.623463903780252,9.26458978821103
0.46,2.40449613444798,320.012827858559,321.768369245986,-0.0126560474339806,1.94103414346501,1.92557430267334,-0.815188354090917,9.6718033438038
0.47,2.73983854681768,320.33926323724,321.768369245986,-0.0165643903416015,1.98531825457848,2.00778603553772,-0.784295660266983,9.89758547973635
0.48,3.07521043922045,320.535484890916,321.768369245986,-0.0295401646304978,1.85116094715998,1.83892023563385,-0.707186468275298,9.66690999057536
0.49,3.41057192837467,320.155241782863,321.768369245986,-0.0593900549103658,1.71171037376005,1.5855485200882,-0.518649152318932,8.97453425993745
0.5,3.74589754643077,320.093093769544,321.768369245986,0.0372349446490225,1.93851964459389,1.86242580413818,-1.10145659459626,9.2979322393713
0.51,4.08121656512487,320.232702757155,321.768369245986,0.133856151323097,2.08332570365681,2.1146879196167,-1.67223149392089,9.97674788652412
0.52,4.41657970279165,320.536255865765,321.768369245986,-0.0500108523107163,1.86567804014185,1.93159449100494,-0.608170011104632,10.1720341166549
0.53,4.75194618476121,320.176545814222,321.768369245986,-0.0933399819090235,1.7071336338527,1.64236116409302,-0.345017247163352,9.374625082122
0.54,5.08727833711141,320.026326484527,321.768369245986,0.0395338779237617,1.91807686780538,1.89109992980957,-1.13073696834219,9.61013536294916
0.55,5.42265132927302,320.227341148939,321.768369245986,0.0491313273497117,1.88106384985471,1.8821667432785,-1.18125525993244,9.72445043532992
0.56,5.75800713836129,320.371009343531,321.768369245986,-0.0285058835031653,1.83961250163878,1.94631206989288,-0.722409333435316,10.3587162259621
0.57,6.09339286628919,320.337303251348,321.768369245986,-0.099726678920621,1.78305080472996,1.73837733268738,-0.282041346120173,9.40387795673137
0.58,0.14553623900764,319.956895526319,321.768369245986,0.00454751018314004,1.87788140241367,1.87456250190735,-0.905745024417714,9.6765729173803
0.59,0.48083557473214,320.12020216954,321.768369245986,0.00251331178768588,2.07174444599005,2.13703203201294,-0.901421322047954,10.1583741950483
0.6,0.816198066564574,320.468611072247,321.768369245986,0.017890616142323,1.93584427292466,1.96355938911438,-1.00951937807742,9.92130896892119
0.61,1.15156070173739,320.272768342068,321.768369245986,-0.132336804137449,1.64701770037623,1.61280989646912,-0.116254516400249,9.55497256865584
0.62,1.48689187756604,320.019296674091,321.768369245986,-0.0126926134436721,1.87513053844574,1.8077107667923,-0.825144840077223,9.37033264018523
0.63,1.82223270516841,320.223513213061,321.768369245986,0.00337956886693208,2.0582622955414,1.98066115379333,-0.921006502657384,9.30797107522895
0.64,2.1575950953235,320.358500268412,321.768369245986,0.0880095123432351,1.85611916825971,1.93695020675659,-1.43311930508441,10.2402071595694
0.65,2.49295553425199,320.369448247193,321.768369245986,-0.0894289845619083,1.63698672553155,1.58746540546417,-0.383869055050517,9.46768961433574
0.66,2.82827662742215,320.089136286833,321.768369245986,-0.0185695713007056,1.87932791190707,1.78105664253235,-0.767327630742814,9.21753456115301
0.67,3.1635958511111,320.048508365758,321.768369245986,0.0937445461402758,2.01231087782981,2.10897135734558,-1.44171566525799,10.4127365632099
0.68,3.49897651685658,320.31986262956,321.768369245986,0.109114940637619,1.82839350948133,1.90035939216614,-1.54903935878948,10.2081061635777
0.69,3.83435010383397,320.402350115382,321.768369245986,-0.0980641746483892,1.68264856207925,1.68872117996216,-0.321568101776444,9.7959984312629
0.7,4.16970593980337,320.178116727904,321.768369245986,-0.0782925662066627,1.8124854967799,1.72097933292389,-0.44770081119931,9.1971317663668
0.71,4.50504585421162,320.157077674852,321.768369245986,0.0560289223245256,1.98502972348604,1.88412857055664,-1.22678121952244,9.13546688958441
0.72,4.84039900170234,320.395052593574,321.768369245986,0.0393267928712862,1.99710395633519,2.04339361190796,-1.13121708381412,10.0017116313348
0.73,5.1757584404357,320.420078359257,321.768369245986,-0.103917276690854,1.75838449263058,1.7217310667038,-0.270049984019223,9.51236362488498
0.74,5.51110733965644,320.172236493856,321.768369245986,-0.0495767189349663,1.78797040053708,1.67115473747253,-0.600361150752117,9.03037119236617
0.75,5.84642614939292,320.110059950914,321.768369245986,0.0166076288613088,1.97187619077527,1.90769898891449,-0.997797444052245,9.37639450746114
0.76,6.1817765473955,320.331886174006,321.768369245986,0.0292761814590589,2.06677371712347,2.05711770057678,-1.06432950492552,9.69498669371073
0.77,0.233981377615095,320.396883844737,321.768369245986,-0.0521367572609847,1.70553197868588,1.74281716346741,-0.600238384537895,9.93090215613155
0.78,0.569353480102336,320.218031814883,321.768369245986,-0.0178479013724304,1.81839051255228,1.75443434715271,-0.799325593275907,9.28504613573051
0.79,0.904705578559081,320.031709022959,321.768369245986,0.0151556937139496,1.93955779423974,1.92372608184814,-0.976350934403103,9.54927542401547
0.8,1.24005354927692,320.310645516962,321.768369245986,0.0591818810550363,2.03478410991302,1.99455606937408,-1.2451149449289,9.39135527537032
0.81,1.57542354008162,320.370881189157,321.768369245986,0.0194394088477783,1.85366887525111,1.83070349693298,-1.01592883942244,9.47329732413924
0.82,1.91080091136859,320.228814358933,321.768369245986,-0.100099779272239,1.7404461310155,1.70235121250153,-0.284428926063042,9.34888017484271
0.83,2.24612981449292,320.192699657627,321.768369245986,0.0228685001181857,1.97517756612507,1.88103771209717,-1.0221723257323,9.03364496072684
0.84,2.58148040114094,320.265784545743,321.768369245986,0.0828290536012996,2.00856239291061,1.98750364780426,-1.39975176690803,9.45581960389407
0.85,2.91682660292327,320.445243394924,321.768369245986,0.00658029914335647,1.84247110382745,1.88196051120758,-0.945642512082016,9.83472785025904
0.86,3.25215614454791,320.247817862768,321.768369245986,-0.0341204455768346,1.75563116555883,1.69990611076355,-0.685982337673415,9.31322060482207
0.87,3.58750441768814,320.13706386719,321.768369245986,0.00908326776688871,1.92336233756983,1.81391477584839,-0.941171307695874,8.97653678988998
0.88,3.92283568571197,320.13089459451,321.768369245986,0.0937203717264595,2.05780252843969,2.13202857971191,-1.45795912459297,10.0916362883284
0.89,4.25820065004296,320.334405607736,321.768369245986,0.0286021797703851,1.79353687204885,1.90011096000671,-1.07131948974618,10.2654603656657
0.9,4.59356670148255,320.28068319543,321.768369245986,-0.0567699972160051,1.76238407533543,1.70125460624695,-0.56245673157456,9.2517043534065
0.91,4.92889821707316,320.044548407858,321.768369245986,0.0435413747337195,1.88532719646071,1.80311369895935,-1.13543874617058,9.14592041749219
0.92,5.26423634317548,320.218547149016,321.768369245986,0.048644290322481,2.05617565574773,1.99815034866333,-1.17409472257407,9.28845067350549
0.93,5.59958658657807,320.328311749441,321.768369245986,0.00221329509506929,1.79760489905649,1.95340049266815,-0.901580527856496,10.5710913595769
0.94,5.93497009578702,320.315311145669,321.768369245986,-0.111461643676361,1.71844020972317,1.72929632663727,-0.22303442501756,9.66654685925879
0.95,6.27030335409295,320.192023078354,321.768369245986,-0.0579875298161875,1.91013218385107,1.77487862110138,-0.521871902233969,8.80351560699966
0.96,0.322430014885406,320.09310004743,321.768369245986,0.0564380815187547,2.02282784071401,2.07149338722229,-1.22483008009259,9.94931090457062
0.97,0.657800746869739,320.283485891889,321.768369245986,0.0962987909629921,1.88691660287659,1.94774842262268,-1.48007310706463,9.98815484971661
0.98,0.993134734065706,320.379106617455,321.768369245986,-0.0826692949064761,1.7025300081365,1.64573311805725,-0.408426726994724,9.33456820457457
0.99,1.32851026671746,320.193797155621,321.768369245986,-0.0222310286270484,1.83686331146084,1.76556801795959,-0.76015282236958,9.19977993545459
1,1.66382035560522,320.125593750722,321.768369245986,0.0436338937312447,2.05644392549566,2.13892006874084,-1.15966471746722,10.1684700077052
1.01,1.99913680889785,320.364104904622,321.768369245986,0.155049280095742,2.04096103390081,2.15324759483337,-1.83187374811729,10.4030019177182
1.02,2.33451632206434,320.405924511604,321.768369245986,-0.116573568251781,1.75615582113699,1.75290584564209,-0.204541460552788,9.67549342694039
1.03,2.66985172667653,320.188845776678,321.768369245986,-0.074826570687717,1.8342489743889,1.68765068054199,-0.445015899578552,8.84075516631284
1.04,3.00520970222325,320.070176838982,321.768369245986,0.00754072312033316,1.95947440495631,1.91299331188202,-0.93306244705633,9.40526613032729
1.05,3.34052736424744,320.30120609791,321.768369245986,0.112967226713272,2.12342065426387,2.14768576622009,-1.56883364545398,9.87410335388478
1.06,3.67590287619109,320.418146295961,321.768369245986,-0.00653117802153069,1.76524073973343,1.75380277633667,-0.872634339020501,9.6402268075322
1.07,4.01125202576486,320.162836314423,321.768369245986,-0.0653584321467442,1.7365559749256,1.65860247612,-0.506368003211682,9.24970323483002
1.08,4.34659053422648,320.130395333589,321.768369245986,0.0529522750760851,1.97712953856926,1.92960810661316,-1.217503123729,9.42577400933336
1.09,4.68193269189525,320.210755809223,321.768369245986,0.115369479616083,2.09133953229576,2.17554688453674,-1.58214337866359,10.2123247525
1.1,5.01729690658966,320.396752152314,321.768369245986,-0.0108267024190677,1.78791012522549,1.83306276798248,-0.830060549524433,9.9735479130465
1.11,5.35267122237082,320.200041371464,321.768369245986,-0.0443043855785765,1.78956791016213,1.73212623596191,-0.600860751274188,9.32424737432218
1.12,5.6880108184029,320.04892306495,321.768369245986,0.0233844708036631,1.9347848827904,1.91808426380157,-1.00136519565915,9.56189325263162
1.13,6.02333267559472,320.233912179856,321.768369245986,0.0565796433244674,2.09729399230091,2.10896563529968,-1.20586680346432,9.76213500895813
1.14,0.0754737470590783,320.472854115298,321.768369245986,-0.0051398975452851,1.89178723206817,2.02085661888123,-0.830847488241445,10.5231701973484
1.15,0.410836435815895,320.223760506884,321.768369245986,-9.83498845989472e-05,1.70579779062319,1.65145361423492,-0.866712403759922,9.41507783179634
1.16,0.746172055753469,320.006568642507,321.768369245986,-0.00604460440629973,1.89280923399745,1.83985066413879,-0.847927028686423,9.432904473104
1.17,1.08153036168846,320.194467376651,321.768369245986,0.0669376846489054,1.96056793761996,1.91908144950867,-1.2936980485843,9.46787325520513
1.18,1.41690107254964,320.42342111965,321.768369245986,0.046050415893349,1.87088756204072,1.87898373603821,-1.19193048189534,9.73236096283001
1.19,1.75225068901377,320.336877747258,321.768369245986,-0.120969993930084,1.80025635797698,1.71296322345734,-0.1908759376927,9.17412433274588
1.2,2.08759084830947,319.982882983912,321.768369245986,-0.0563585504643433,1.87488816051714,1.8614786863327,-0.568913082912435,9.62365772718289
1.21,2.42288375301003,320.099050704103,321.768369245986,0.0436488438572782,2.0897181157727,2.23663735389709,-1.1784433456185,10.6669089644855
1.22,2.7582498583828,320.451242184899,321.768369245986,0.00279534148683591,1.95846213786752,2.03692317008972,-0.930119283695862,10.2341892921087
1.23,3.09361365335683,320.369553062812,321.768369245986,-0.0457419298478654,1.7679445586122,1.6593451499939,-0.643735161179426,9.1135816649658
1.24,3.42897716814747,320.16467779114,321.768369245986,-0.0188038357552996,1.83659194582609,1.73821437358856,-0.80685360250791,9.14342809857109
1.25,3.76433102424755,320.254924875858,321.768369245986,0.0709154416031061,2.04354506922322,1.9445424079895,-1.32832757520955,9.10788642718165
1.26,4.09970765534605,320.28619233961,321.768369245986,0.0796516598150614,1.80654649008083,1.87246692180634,-1.37803549431496,10.0499548345634
1.27,4.43505208993749,320.366007458187,321.768369245986,-0.102281309793721,1.76053378355763,1.75093495845795,-0.278286294386557,9.63480985626735
1.28,4.77038591320493,320.128475178166,321.768369245986,0.0131159194904581,1.87892950461149,1.7579003572464,-0.954092670382624,8.98424068569839
1.29,5.10572027852038,320.147356666287,321.768369245986,0.0246213712206209,2.01999749169175,1.9940379858017,-1.02953814915119,9.56621950720051
1.3,5.44104893094661,320.351901010591,321.768369245986,0.168931432639259,2.05749285294928,2.13528203964233,-1.91230155399469,10.2209189923786
1.31,5.77641388717951,320.411393937857,321.768369245986,-0.118266076447994,1.76165779044557,1.71479618549347,-0.212432589441774,9.47259042754116
1.32,6.11175667814263,320.153439073491,321.768369245986,0.00718260969503193,1.77171975094151,1.64633405208588,-0.94869756230919,9.01663742797123
1.33,0.163911638860583,320.099451576505,321.768369245986,-0.0392317776652467,1.98071773301222,1.92145001888275,-0.655240007900284,9.4117394768879
1.34,0.499275973349228,320.322208185836,321.768369245986,0.111306008256821,2.04756691542552,2.05727362632751,-1.56956768623065,9.79026767137807
1.35,0.8346256463035,320.492238081928,321.768369245986,-0.114821276182146,1.78151424769418,1.80182456970215,-0.240268639391598,9.87903818960974
1.36,1.16998536140971,320.234002342872,321.768369245986,-0.0998925627224765,1.83241722995614,1.69664263725281,-0.309731932528734,8.92746108477564
1.37,1.50534461106225,320.074439604984,321.768369245986,-0.0568805407064856,1.95722480965319,1.90120887756348,-0.551533157731448,9.36731943989192
1.38,1.84067803196134,320.284629236009,321.768369245986,0.0828565923863356,2.11724835700068,2.10825967788696,-1.38596529919493,9.66004165910885
