t,theta,omega,r,i_d,i_q,i_q_ref,v_d,v_q
0,0,0,307.073014292117,-2.31593711619684e-24,0,0,0,0
0.01,0.0663165843599743,130.120000539381,307.073014292117,0.170668836595755,7.6986473929127,10,-1.13584874758363,17.5140505719031
0.02,0.270675293166019,257.559309293449,307.073014292117,0.229912637290288,7.78252778018832,10,-1.84749518310235,20.3828379049252
0.03,0.58028058729696,304.993919348909,307.073014292117,-0.0289050160909111,1.26326097116102,1.37016069889069,-0.532806139455522,8.92102423171927
0.04,0.900185026143273,305.477890621736,307.073014292117,0.0657300047865492,1.88525749661906,1.93630397319794,-1.12218933165774,8.83966232628014
0.05,1.22014299715276,305.502535418727,307.073014292117,0.0292122603935513,1.80915588653568,1.91630518436432,-0.918138404666918,9.34754700279165
0.06,1.54013783715132,305.56856916511,307.073014292117,0.115294520183933,1.82815363503004,1.91848278045654,-1.46423999917435,9.35574950356853
0.07,1.86013517414681,305.607768233601,307.073014292117,0.121592925334284,1.69103004952221,1.78685593605042,-1.50984819086059,9.4985184639437
0.08,2.18014925846321,305.707103889936,307.073014292117,-0.00316190100858271,1.74674618461076,1.80944836139679,-0.765250184789034,9.38926754141231
0.09,2.50017264981682,305.651211902396,307.073014292117,-0.0343054970062058,1.75803402318672,1.73213338851929,-0.56324737359542,8.92642159624955
0.1,2.82019541998667,305.526150920916,307.073014292117,-0.0187683626531614,1.78015537774048,1.72789716720581,-0.651116498051,8.8227415550182
0.11,3.14022641396498,305.518649424387,307.073014292117,0.00743143912739078,1.94963505407527,1.89043617248535,-0.81649123479066,8.810283575177
0.12,3.46026597914042,305.595266991274,307.073014292117,-0.0177027832261828,1.94601209030923,1.89405870437622,-0.652314773376841,8.87976493850863
0.13,3.78031968027816,305.592468897073,307.073014292117,0.0732199555063419,1.75168540624923,1.77968490123749,-1.19835477577359,9.36190820587044
0.14,4.10037151960801,305.626944963982,307.073014292117,0.0553770073278951,1.54342788111718,1.70101499557495,-1.10044732867826,10.1572072507658
0.15,4.42042380488378,305.756868080182,307.073014292117,-0.0424099541624385,1.66280101448366,1.71818721294403,-0.527409070630848,9.56798617075103
0.16,4.74047916592287,305.632017778908,307.073014292117,-0.136668980792389,1.64366353103734,1.62939989566803,0.0469335902024467,9.16379024053649
0.17,5.06053846302093,305.581883974283,307.073014292117,-0.077053919522156,1.62745900377115,1.58988869190216,-0.332428073382614,9.01663037498991
0.18,5.38057768658809,305.599853734644,307.073014292117,-0.108933009169961,1.74039829024639,1.71934378147125,-0.141913085606512,9.13536332981737
0.19,5.70063003818924,305.562709303798,307.073014292117,0.0726418725076442,1.91317979545886,1.8645840883255,-1.21849452643273,8.96470082042747
0.2,6.02066839613216,305.686343008442,307.073014292117,0.0665293363933895,1.94906872973161,1.92619967460632,-1.20098496254756,9.14171261783442
0.21,0.0575461642638899,305.675630506982,307.073014292117,0.0529687475453553,1.67694817052685,1.76137554645538,-1.13794045773361,9.78108706142439
0.22,0.377604017415813,305.688778091945,307.073014292117,-0.0202058610336089,1.65961717333614,1.69679737091064,-0.695771820927343,9.50907033424507
0.23,0.697667351638819,305.736864072553,307.073014292117,-0.0686331349244149,1.7567470090775,1.75154757499695,-0.405774776885742,9.25708800615627
0.24,1.01773384662679,305.5715137853,307.073014292117,-0.0528486560115577,1.73858704915652,1.69026637077332,-0.481150954210157,8.980570745896
0.25,1.33778465662998,305.549994169694,307.073014292117,-0.00506190363702848,1.86768760665601,1.8329097032547,-0.764710508334576,9.06418896804656
0.26,1.65783295102433,305.572141527572,307.073014292117,0.0404387227923932,1.87690585085582,1.79922497272491,-1.00861257752996,8.81075235663714
0.27,1.97788780229918,305.606972367194,307.073014292117,0.0321686302041222,1.90529126065624,1.85566902160645,-0.975363968922724,8.9791797488964
0.28,2.29794600079155,305.716904811155,307.073014292117,0.0225069262604954,1.73074826878045,1.84468030929565,-0.936343755273854,9.96503766688434
0.29,2.61801114218011,305.792201771957,307.073014292117,0.0150145293799296,1.7001757583474,1.8116729259491,-0.916300451153904,9.95488443799514
0.3,2.9380666265069,305.758336072303,307.073014292117,-0.0491959166883075,1.69511289107733,1.6757777929306,-0.522957582449969,9.18406267384177
0.31,3.2581206072124,305.616634305496,307.073014292117,-0.0543720406701375,1.63010277095399,1.6236652135849,-0.469133813366515,9.26728263289523
0.32,3.57817332477893,305.594811195167,307.073014292117,0.0222724052377763,1.82911164032363,1.74291253089905,-0.921942279962638,8.78909779954337
0.33,3.89822451166776,305.546962986574,307.073014292117,-0.0481682475849174,1.97737090136959,1.8995121717453,-0.49194508818757,8.83232919640283
0.34,4.21827433962113,305.646283418781,307.073014292117,0.0161857566577884,1.85576946018864,1.86896657943726,-0.872247888795804,9.38648047905512
0.35,4.5383327835018,305.651203340278,307.073014292117,0.0177914003548731,1.79979647964489,1.78869318962097,-0.886492659441569,9.23500909176912
0.36,4.85839124137786,305.667066778872,307.073014292117,0.0924907054278429,1.67690262156636,1.71607530117035,-1.34852996693669,9.54836986762947
0.37,5.17845692209931,305.756528144593,307.073014292117,-0.0586556981714703,1.69814276741605,1.72349166870117,-0.440717958747899,9.46752631445594
0.38,5.49852280533646,305.56985071579,307.073014292117,-0.00843035003205761,1.62852370979842,1.61139869689941,-0.721477224707072,9.19408956405862
0.39,5.81857299698547,305.606449190807,307.073014292117,-0.0882415791361866,1.81081646252488,1.71917378902435,-0.231980662259499,8.74818378498937
0.4,6.13862580683574,305.582089417788,307.073014292117,0.130098915733481,1.88009391244587,1.8740119934082,-1.5486994467071,9.25848821289978
0.41,0.175481868886926,305.688886418322,307.073014292117,0.0792346647120398,1.96026245886783,1.93339192867279,-1.22431903832006,9.14685341911598
0.42,0.495548750132663,305.603545568086,307.073014292117,0.107815141632681,1.71788938903412,1.72159492969513,-1.40808008369474,9.31218855276525
0.43,0.815608487112803,305.765993936204,307.073014292117,0.0292396087125758,1.64586472793991,1.72864997386932,-0.943143616841977,9.78664435996822
0.44,1.13567386695121,305.731816415245,307.073014292117,-0.120621150435377,1.6455290618168,1.67825376987457,-0.0135482727751447,9.48975007341867
0.45,1.45573640529332,305.674346194829,307.073014292117,-0.0374133128595916,1.75845523859112,1.69072866439819,-0.522010698287468,8.88132970986946
0.46,1.77580103089286,305.55220431164,307.073014292117,-0.0994700166302146,1.68050763314729,1.67700731754303,-0.150154336392488,9.25216289320758
0.47,2.09583702456831,305.548651839226,307.073014292117,-0.0219083781392219,1.96018963070506,1.88794159889221,-0.604936362610966,8.85906376540705
0.48,2.41589404959286,305.633773767451,307.073014292117,0.011692444873728,1.83545446584922,1.84608197212219,-0.836784216136175,9.35195019063876
0.49,2.73594745861655,305.656795608731,307.073014292117,0.0445192397749007,1.8247046162515,1.89385414123535,-1.03123933079465,9.70191358891012
0.5,3.05600507598779,305.66274147549,307.073014292117,0.00742264466191755,1.56941195759078,1.70780193805695,-0.798710554224963,10.1253398069717
0.51,3.37607054956413,305.763929998867,307.073014292117,-0.0306040214189965,1.68213936551334,1.68125343322754,-0.590765797293658,9.29073655316362
0.52,3.69613719716851,305.660107712503,307.073014292117,-0.00401614888837698,1.67243368959949,1.65325951576233,-0.748791844534147,9.16839175197365
0.53,4.01619992154765,305.517635890039,307.073014292117,0.014213317763156,1.71021325026792,1.62892413139343,-0.831228856405003,8.78209033075234
0.54,4.33624947614924,305.56562255972,307.073014292117,-0.0350834523469258,1.87904611864387,1.81772708892822,-0.532758684602418,8.90262590253699
0.55,4.6563044383434,305.621091165886,307.073014292117,0.0340618562537329,1.84605958947144,1.85373342037201,-0.928934656752845,9.31484571284839
0.56,4.97634077543453,305.702437101618,307.073014292117,0.0794023636676007,1.95550569337645,1.94296824932098,-1.20423963342397,9.22110223025344
0.57,5.29640697375247,305.689366733583,307.073014292117,0.117536093009793,1.67390621828802,1.75831615924835,-1.44555360939091,9.80032465796998
0.58,5.61646503475925,305.729132483561,307.073014292117,0.00471028440334231,1.6294870365962,1.72463130950928,-0.788914343300748,9.88186647136756
0.59,5.93653061036166,305.723508672577,307.073014292117,-0.0211604151080987,1.71197551845846,1.68755924701691,-0.644262226496945,9.16413302920544
0.6,6.25658835392258,305.576138314222,307.073014292117,-0.0928291711461064,1.62018989583252,1.5840026140213,-0.209832401706713,9.09317528502741
0.61,0.293452499826195,305.570547799198,307.073014292117,0.0363288733665496,1.87174478520443,1.8237076997757,-0.975867737842768,9.02812973716123
0.62,0.613510258282972,305.648339873533,307.073014292117,-0.0518923844673888,1.88033229306409,1.8470675945282,-0.447268945397054,9.10749353562564
0.63,0.933574853077847,305.60645376134,307.073014292117,0.000923277076703033,1.84132597222936,1.84346342086792,-0.753512055858236,9.30102821315416
0.64,1.25363424640458,305.608222129502,307.073014292117,0.0795306806817675,1.66171745899595,1.78904747962952,-1.2502274199613,10.0555344782468
0.65,1.57369222896184,305.705643223044,307.073014292117,0.0732999991702415,1.67244123311838,1.73901271820068,-1.2491529752717,9.69549497381847
0.66,1.89375761865614,305.735042032665,307.073014292117,-0.080997090448631,1.69955695819983,1.72836267948151,-0.333793082122789,9.47350660961094
0.67,2.21381418738338,305.567510232091,307.073014292117,-0.0624310353107305,1.74946344231282,1.66911387443542,-0.447325822593867,8.81780183404584
0.68,2.53386448852389,305.582377402608,307.073014292117,0.0318852979000995,1.83518690280054,1.75263500213623,-1.02241624374185,8.80799947652512
0.69,2.85392068684947,305.600533839212,307.073014292117,0.0786705313976426,1.8412485172844,1.81411504745483,-1.29488938951406,9.13117369906661
0.7,3.1739667262693,305.734069092661,307.073014292117,0.0186178640579929,1.89485490919859,1.92421627044678,-0.916456370870027,9.47648609422087
0.71,3.49403290558417,305.627565204498,307.073014292117,0.0127628911786635,1.6703012668574,1.74308717250824,-0.878872188531946,9.72668665460691
0.72,3.81410209906281,305.807419273178,307.073014292117,-0.00533510354907673,1.70681758378172,1.80203783512115,-0.782283105090792,9.85816178167839
0.73,4.1341564476198,305.731795074957,307.073014292117,-0.0807094112451459,1.64960004835439,1.70250117778778,-0.321831020102673,9.62315077800912
0.74,4.45421509521187,305.627434673895,307.073014292117,-0.0556097237062087,1.66387012180615,1.66213178634644,-0.471560609630666,9.29240117388157
0.75,4.77427249050645,305.567520765538,307.073014292117,0.0231988116786854,1.92225386439307,1.81308567523956,-0.941890236348389,8.64074324000257
0.76,5.09432689236304,305.508731487209,307.073014292117,-0.0306555905706616,1.85835187526696,1.84123313426971,-0.624942199171013,9.18344062593266
0.77,5.41436964416953,305.704097077712,307.073014292117,0.0436727382152852,1.97945621648306,1.94948267936707,-1.04583106001157,9.1253519143502
0.78,5.73444092378987,305.717988218918,307.073014292117,-0.0158383145341303,1.84557658597774,1.8375027179718,-0.695175448935379,9.24055111151188
0.79,6.05450504140346,305.716961587358,307.073014292117,0.0710285387839959,1.60780288802788,1.6580673456192,-1.22016061975779,9.58873397368953
0.8,0.0913676842262063,305.710629372062,307.073014292117,-0.093755625576873,1.72509423556988,1.73377466201782,-0.232573366552564,9.36937002716719
0.81,0.411436444793317,305.627169668036,307.073014292117,-0.0143771378909874,1.69759619622198,1.61874580383301,-0.691042450920121,8.83134471508053
0.82,0.731493694803891,305.578475321211,307.073014292117,-0.0154334284425414,1.81183119417025,1.73641240596771,-0.679085460619605,8.85299206832481
0.83,1.05154479398921,305.53097691368,307.073014292117,0.0713473102079739,1.95639778809948,1.89039242267609,-1.22207352955125,8.905647791133
0.84,1.37161552827756,305.59597837973,307.073014292117,0.0768760809277214,1.84633161429459,1.77852535247803,-1.25086644577747,8.87226115300693
0.85,1.69167696477837,305.698475619839,307.073014292117,0.050471394824625,1.80936815745025,1.80337572097778,-1.1079804970448,9.23961578206914
0.86,2.01173796693682,305.712213611434,307.073014292117,0.0192406480584724,1.59574459162229,1.68337881565094,-0.924948837644698,9.80435902866777
0.87,2.33180514763732,305.767173462625,307.073014292117,-0.128108030813658,1.70021528435581,1.75470495223999,-0.0431022695325081,9.60483349670429
0.88,2.65185520519932,305.658278125989,307.073014292117,-0.0869626827711705,1.65073173036382,1.69089448451996,-0.275252779033732,9.53064768773035
0.89,2.97191629289356,305.582029478784,307.073014292117,-0.0738954152439966,1.79846846779062,1.73548233509064,-0.324165532978844,8.8999096716165
0.9,3.29196060145997,305.467665734102,307.073014292117,0.0332590648547211,1.92977140867829,1.8720508813858,-0.953191214259039,8.94136313568114
0.91,3.61201936337154,305.591955399438,307.073014292117,0.0809140355676471,1.89567219597987,1.828000664711,-1.23709868514664,8.87533765383787
0.92,3.93207935604664,305.592988333274,307.073014292117,0.0427580231548961,1.7876515129377,1.82913899421692,-1.0143193836703,9.52481973978761
0.93,4.25214050940813,305.665667687419,307.073014292117,0.132838426819759,1.7011562141615,1.74992692470551,-1.57639423003922,9.57130332064552
0.94,4.57220484202875,305.745793530549,307.073014292117,-0.0620412189552508,1.6768964035605,1.73191475868225,-0.429587835368005,9.6118933073586
0.95,4.89227138676341,305.631971551019,307.073014292117,0.0196884957439428,1.63561722019237,1.61638915538788,-0.888083507300134,9.15479179516613
0.96,5.21233093907241,305.556248778534,307.073014292117,-0.0287221557864744,1.78700257210187,1.69855523109436,-0.571745764927914,8.73679141974226
0.97,5.5323875776824,305.518904055908,307.073014292117,0.0495350588967556,1.85665140996977,1.78302466869354,-1.05143189560769,8.82144121619809
0.98,5.85243284576096,305.544113174772,307.073014292117,-0.027068740219765,1.92455452172759,1.88583171367645,-0.584707499335145,9.04105882105262
0.99,6.17249320370102,305.632510181875,307.073014292117,0.0954766718708762,1.76795393029757,1.787966132164,-1.34583774000498,9.38713669963013
1,0.209364520894635,305.744854200782,307.073014292117,-0.0160601246799545,1.62199498983875,1.65338063240051,-0.66902606183637,9.45967371563278
1.01,0.529419783189848,305.7689331728,307.073014292117,-0.0360283758792056,1.70662125053946,1.76702737808228,-0.542760366683539,9.6493330824981
1.02,0.849472605465316,305.639595715008,307.073014292117,-0.0492057914320755,1.60181883945612,1.61785316467285,-0.469970572318302,9.39709701021246
1.03,1.1695415134921,305.586786327631,307.073014292117,-0.0779441007323233,1.71963908702633,1.68077838420868,-0.286947352418235,9.04980605895711
1.04,1.48959021149661,305.594421124557,307.073014292117,-0.0923615240519126,1.85560587524303,1.84433364868164,-0.187968181120707,9.22037348281973
1.05,1.80964529531834,305.597709138209,307.073014292117,0.0766497674075416,1.91144316266805,1.82437944412231,-1.21373502901597,8.75770396547958
1.06,2.12969379942071,305.634995513588,307.073014292117,-0.0216160045711077,1.84084677131873,1.81517469882965,-0.612623160540111,9.13175777605329
1.07,2.44975017340584,305.607607574185,307.073014292117,0.0575528488884932,1.71026371036311,1.73352372646332,-1.09744696130565,9.43169483290211
1.08,2.76981768760147,305.674985695128,307.073014292117,0.0463166540506306,1.61386739952732,1.70914316177368,-1.04669648402021,9.86109830015527
1.09,3.0898705077423,305.668625647719,307.073014292117,-0.0253969771281976,1.63915782634888,1.67992985248566,-0.617521368837101,9.55594517990629
1.1,3.40993170173066,305.585828134575,307.073014292117,-0.0631384911807394,1.69466857721682,1.64254152774811,-0.385186595429899,8.99686909278387
1.11,3.72999269312922,305.546145929572,307.073014292117,0.0369243683683845,1.72132498585405,1.68121266365051,-1.00850393556873,9.06011620457155
1.12,4.05004580174504,305.636709061772,307.073014292117,0.0507550822772536,1.8918267723678,1.79233014583588,-1.09888039438982,8.70406332646025
1.13,4.37009991535511,305.73445789517,307.073014292117,0.035203943889847,1.88987300812733,1.91083240509033,-1.00080665755156,9.42635180755766
1.14,4.69015199258119,305.618454770112,307.073014292117,0.12337842442035,1.76948582545727,1.84496676921844,-1.53693851759231,9.76184686621763
1.15,5.01020913724312,305.745415546713,307.073014292117,0.0557042696226095,1.66415979007677,1.73657763004303,-1.142656696673,9.75741329665561
1.16,5.33028311733252,305.75118612773,307.073014292117,-0.0860128078820065,1.58035847444446,1.65727519989014,-0.29364012034264,9.77241113414482
1.17,5.65033070413633,305.629825389906,307.073014292117,-0.0349373203589557,1.76102321586535,1.66984033584595,-0.593033067731609,8.77343405382393
1.18,5.97039623678756,305.571520322271,307.073014292117,0.000760675071129979,1.81545280434979,1.74188923835754,-0.789201629994739,8.86696063217117
1.19,0.00726245309618179,305.553564066765,307.073014292117,0.0116846814739121,1.96973237511348,1.8765606880188,-0.839364355682066,8.74083680282789
1.2,0.327318367147086,305.732066065295,307.073014292117,0.038196586802316,1.94530235677069,1.9613915681839,-0.985023465090817,9.39422089115211
1.21,0.647383864373737,305.683248138826,307.073014292117,0.0103590778304159,1.83296985028216,1.83875250816345,-0.824567896697639,9.32157868132865
1.22,0.967437132806772,305.716477433286,307.073014292117,0.0805384825603305,1.75043602376747,1.81369435787201,-1.25074662054805,9.67911259798502
1.23,1.28750676039389,305.763306859753,307.073014292117,0.00215323637411313,1.69649464521803,1.7404443025589,-0.809657136203875,9.55836054153461
1.24,1.60756192406195,305.635167523037,307.073014292117,-0.0718224683559894,1.7081247143286,1.68223440647125,-0.363921531062313,9.14255712975617
1.25,1.92762041739949,305.575223949255,307.073014292117,-0.0565192412609805,1.80901622065247,1.72189915180206,-0.445233512816126,8.77060982586134
1.26,2.24766946088792,305.626131445911,307.073014292117,0.0235402398703421,1.90899798936045,1.83175194263458,-0.93070765307016,8.8352333216294
1.27,2.56771590135527,305.636890566399,307.073014292117,0.0840643920336763,1.82592724743298,1.84716284275055,-1.28550232248989,9.43513062131882
1.28,2.88778003324689,305.609953335067,307.073014292117,0.0866784054771174,1.73891883686732,1.76840245723724,-1.29944700749821,9.4739202061747
1.29,3.20782981002309,305.733087664988,307.073014292117,0.0105655291733362,1.74517412944456,1.8191329240799,-0.866078333863429,9.75553513202721
1.3,3.52789722405988,305.783186153274,307.073014292117,-0.0124862574207594,1.63583960569422,1.7239773273468,-0.723863542273968,9.84007855925463
1.31,3.8479596192342,305.681763543699,307.073014292117,-0.0656168351072192,1.75089999185695,1.6848726272583,-0.402014061788121,8.90898868388936
1.32,4.16802082771349,305.619633224865,307.073014292117,0.000176312631542386,1.82086099342351,1.74788820743561,-0.782413459424947,8.86108215539785
1.33,4.48807583928718,305.519701741868,307.073014292117,0.0251774637200801,1.95464793165861,1.90593314170837,-0.930593860555792,9.00607666379976
1.34,4.80813374493393,305.627530480575,307.073014292117,0.03214209224418,1.9484472377641,1.88265919685364,-0.974654895357626,8.89619097989494
1.35,5.12819506723099,305.667571630314,307.073014292117,0.0576100963989397,1.86019462786677,1.87383842468262,-1.12459152117833,9.36363174918805
1.36,5.44826826303643,305.681939665817,307.073014292117,0.10814525592541,1.55025343349743,1.63848733901978,-1.45236306872527,9.7939225961476
1.37,5.76832641508352,305.766127023512,307.073014292117,-0.0173108154199044,1.75713745889882,1.78045320510864,-0.712019489220597,9.41553407669327
1.38,6.08838441961056,305.608611344633,307.073014292117,-0.0244115029071778,1.63783438646528,1.64830660820007,-0.640468658306245,9.34482161146583
