t,theta,omega,r,i_d,i_q,i_q_ref,v_d,v_q
0,0,0,99.1785517316985,-2.22563249589371e-24,0,0,0,0
0.01,0.0608705218267637,97.9053808592368,99.1785517316985,-0.106853363058685,-2.72875075773344,-3.71790742874146,0.552860968623315,-3.30443659126171
0.02,0.164082640997685,98.7303625364583,99.1785517316985,-0.0608247742981233,0.549376520704049,0.578522920608521,0.301321452751781,3.04151422523037
0.03,0.267442779805574,98.6580047036915,99.1785517316985,-0.0743800507152036,0.610878855569305,0.617187976837158,0.383851954174734,2.94971632734859
0.04,0.370797096750118,98.7799107290407,99.1785517316985,-0.0369462291265853,0.613580742700694,0.615068197250366,0.14545098836659,2.94315872255804
0.05,0.474165301097563,98.7506283504277,99.1785517316985,-0.0547370971356006,0.577049352695488,0.616482615470886,0.283152982693755,3.17750884066701
0.06,0.577544202546454,98.7421050926681,99.1785517316985,0.00273368904175575,0.526497385708027,0.548160672187805,-0.0518758448460274,3.08650056485653
0.07,0.680908631247435,98.7660016348934,99.1785517316985,0.0623880053391353,0.581980558278538,0.557998538017273,-0.438575295294235,2.83390813763358
0.08,0.784276255046785,98.7285858481053,99.1785517316985,0.00714642614917482,0.555189083653553,0.601293087005615,-0.101192942742704,3.25401323348943
0.09,0.887658501525724,98.7042990315643,99.1785517316985,-0.0851366641159552,0.61489791029735,0.570221722126007,0.457891173329351,2.71468861325131
0.1,0.991029254057986,98.7222932090235,99.1785517316985,-0.0488930642522727,0.514887430029311,0.603173315525055,0.219660157548905,3.53168470625884
0.11,1.09440158878523,98.7248830039023,99.1785517316985,0.0626040470715364,0.580849977779263,0.600726008415222,-0.430384363990327,3.1091558394902
0.12,1.19778288732929,98.7405894880706,99.1785517316985,0.0316342643594243,0.556479942710691,0.594699263572693,-0.249000184518803,3.22494031136789
0.13,1.30115940493932,98.7012150348661,99.1785517316985,-0.0154747803413431,0.518884168191257,0.569962501525879,0.0243363101973337,3.31693951843881
0.14,1.40453185976477,98.782475363371,99.1785517316985,0.0320839230803893,0.59700138038433,0.59594714641571,-0.238267765929692,2.98788638917471
0.15,1.50791461972681,98.7213656849283,99.1785517316985,-0.0451212351749891,0.575710656815132,0.511331558227539,0.23427431775337,2.60472705290819
0.16,1.61128869490379,98.6741998596581,99.1785517316985,-0.097390961438984,0.48207916947115,0.544395983219147,0.536906319488422,3.39198914401621
0.17,1.71465463615915,98.7595352504392,99.1785517316985,0.061096266118097,0.532479143387162,0.605090737342834,-0.444152006485017,3.45246125718061
0.18,1.81802740673162,98.6923463451411,99.1785517316985,0.050769777640657,0.568929471958171,0.543430805206299,-0.398066448608678,2.86827825585624
0.19,1.92141732957003,98.691949747525,99.1785517316985,-0.0482001454341021,0.565909680360515,0.527241587638855,0.193909153286992,2.78605942787381
0.2,2.0247936442744,98.7838105747309,99.1785517316985,0.0522157382654697,0.58641328929191,0.63156670331955,-0.409621238290052,3.28110781134096
0.21,2.12817045502272,98.7095795571085,99.1785517316985,-0.0140153752567286,0.598045932895406,0.562522113323212,-0.00223146661021861,2.7863390636502
0.22,2.2315439946024,98.7455234807183,99.1785517316985,-0.0064155755956869,0.665168464538866,0.662488639354706,-0.0487609312706928,3.00540132460538
0.23,2.3349311078453,98.7637716953456,99.1785517316985,0.0155424934886056,0.519129005043113,0.553099453449249,-0.167560497064892,3.20959658998037
0.24,2.43830677421411,98.757576999939,99.1785517316985,-0.0056656879131274,0.61993644412881,0.592780768871307,-0.056267590855752,2.82676676732179
0.25,2.54168193396086,98.6914629852816,99.1785517316985,0.0459451047851656,0.617130581609876,0.563233733177185,-0.359104367747442,2.67947359631381
0.26,2.64506566909904,98.6906623187991,99.1785517316985,-0.0879549015718227,0.51738268455177,0.516817271709442,0.443610444428246,3.00094080428349
0.27,2.74843644591608,98.6826644156601,99.1785517316985,0.0363297033137971,0.529426606036612,0.51075667142868,-0.325122461792245,2.88306106054705
0.28,2.85181158246363,98.762372548032,99.1785517316985,-0.0832770704281023,0.574878821037625,0.609616696834564,0.418264735697737,3.20484178175853
0.29,2.95519957541531,98.7165781836115,99.1785517316985,-0.0119266820622441,0.550124311969967,0.52003276348114,-0.0039439136227075,2.81978807408715
0.3,3.05856245572173,98.7382829594696,99.1785517316985,0.00305922345437126,0.612496730693261,0.603592813014984,-0.124848288970554,2.95084406336275
0.31,3.16194063607721,98.6997573249835,99.1785517316985,-0.0598712393962035,0.532591091523987,0.555776238441467,0.27648158293609,3.13746031122533
0.32,3.2653256485268,98.7152864962324,99.1785517316985,0.0597707694665006,0.53552810407914,0.563637971878052,-0.458909470718996,3.16900708135697
0.33,3.36870712855772,98.759973323355,99.1785517316985,0.0610367278637316,0.528527007675646,0.494322389364243,-0.503647685121689,2.78345929185614
0.34,3.47207452558045,98.7224807404893,99.1785517316985,0.0158515784727157,0.600924494631896,0.596953749656677,-0.199600872517942,2.97085706015553
0.35,3.5754613686283,98.6880230820557,99.1785517316985,-0.0653976181013753,0.623140483670664,0.603641211986542,0.285669984598274,2.88102733572502
0.36,3.67883029495785,98.7472144253277,99.1785517316985,0.0137234186559915,0.591573991783107,0.577752768993378,-0.193982160710519,2.9330740383727
0.37,3.78220373165259,98.7320046732854,99.1785517316985,0.0661175519115768,0.577723510995935,0.56631737947464,-0.499916799688351,2.93383595771272
0.38,3.88558589107837,98.7178661107412,99.1785517316985,-0.00332100818249534,0.59272567210196,0.576505243778229,-0.084108054551382,2.91230718077402
0.39,3.98895975074873,98.7206067444055,99.1785517316985,-0.0496157149357261,0.516388149439459,0.574475705623627,0.191309504798406,3.37139769249421
0.4,4.09233068505766,98.751009923942,99.1785517316985,-0.0577669462701312,0.526872442184647,0.575370609760284,0.26449617600364,3.30042989184121
0.41,4.19571992961221,98.6925218820745,99.1785517316985,0.0445411327449252,0.481243116144997,0.493250370025635,-0.349050655826051,3.07147896397205
0.42,4.29909418438976,98.765111711462,99.1785517316985,-0.0581535977144746,0.529849918489827,0.583438575267792,0.265815571659944,3.34130642234004
0.43,4.40247156231215,98.7667550529027,99.1785517316985,-0.0264608905916205,0.499495775483671,0.552310764789581,0.0712572417004756,3.31571918804109
0.44,4.50585197715271,98.706169636077,99.1785517316985,-0.00114691633416052,0.530649089085796,0.569183170795441,-0.0757954462187208,3.22662163262059
0.45,4.60923456161534,98.6835686496686,99.1785517316985,-0.0878272827400465,0.499124092871274,0.555049061775208,0.441883919084577,3.33683266536697
0.46,4.71261077678359,98.7774555434672,99.1785517316985,0.000947258003217642,0.468058425365708,0.493005216121674,-0.0736079726861574,3.14211526010133
0.47,4.81598853301442,98.7088406007951,99.1785517316985,0.057139084486208,0.59122860398872,0.599904775619507,-0.427224910140697,3.03558178879962
0.48,4.91936002124986,98.7070980810261,99.1785517316985,0.0357412210275884,0.644135824195765,0.617206215858459,-0.307403617984452,2.84372655891254
0.49,5.02274293374868,98.7448478191366,99.1785517316985,-0.0887852490828338,0.546663539340495,0.569942891597748,0.464969704310845,3.14057832426802
0.5,5.1261153444438,98.7372590522785,99.1785517316985,0.00890513950593066,0.558080148738309,0.614118158817291,-0.116498967226642,3.32713009370462
0.51,5.22948549009896,98.6914820055358,99.1785517316985,-0.00183929640985225,0.621772459823638,0.579264223575592,-0.0403929158118313,2.75320434270364
0.52,5.33286621616835,98.7738167820813,99.1785517316985,-0.0120983357551542,0.577484567100338,0.54911881685257,0.00971634866110221,2.83992893033221
0.53,5.4362330999694,98.7191950988726,99.1785517316985,0.0537856475329169,0.524820659295027,0.569502949714661,-0.389499366652297,3.26828291640308
0.54,5.5396076524522,98.7184979419128,99.1785517316985,-0.0215041491077652,0.540997946578978,0.559998452663422,0.0723180253817011,3.12516402032909
0.55,5.6429968826405,98.7018252076829,99.1785517316985,0.0515226643794331,0.519849594062166,0.526668727397919,-0.343046905491529,3.04301889236545
0.56,5.74636568538111,98.6886281466181,99.1785517316985,-0.0326408812583996,0.555605243606409,0.532170593738556,0.139118284700894,2.85142676418632
0.57,5.84974978569478,98.7213755272739,99.1785517316985,-0.0411167994202642,0.554185541756485,0.584295034408569,0.209470780070287,3.16386235189409
0.58,5.95312781805531,98.7230419420767,99.1785517316985,-0.0435160563266765,0.616706065106849,0.581158936023712,0.228360490900077,2.78405141258796
0.59,6.0564970022057,98.7863543429382,99.1785517316985,0.0583998451219516,0.551842582882671,0.537960588932037,-0.423977177572609,2.91704467805981
0.6,6.15986481846599,98.7227376620628,99.1785517316985,-0.0206144531256838,0.60466405411493,0.590762615203857,0.073462682444905,2.92432872181799
0.61,6.2632472597753,98.7358205757805,99.1785517316985,0.0026653418397176,0.539125572710973,0.5753413438797,-0.0762247948950223,3.23469449869974
0.62,0.0834372703038735,98.7191786119277,99.1785517316985,-0.0134154389370808,0.527507525854357,0.524114727973938,-0.0158685966076317,2.99811962709707
0.63,0.186809310674297,98.715157817546,99.1785517316985,0.0333795840778393,0.583233498300724,0.572580754756927,-0.25855297321521,2.94372109620207
0.64,0.290198533308939,98.7042105268554,99.1785517316985,0.0089011982641668,0.518180950863933,0.540662527084351,-0.090494740747214,3.13927929236698
0.65,0.393572079198225,98.733331622072,99.1785517316985,-0.0446159001642119,0.567365915046758,0.553808748722076,0.209232219615412,2.93641462613217
0.66,0.496945660854982,98.6905471146298,99.1785517316985,0.0996250430169419,0.539324307197365,0.543231546878815,-0.641144590052041,3.02646724367812
0.67,0.600326957813228,98.6967085128151,99.1785517316985,-0.0188100061502139,0.637261774915161,0.603914976119995,0.0546371183720881,2.80729967242399
0.68,0.703697082955422,98.6812212598846,99.1785517316985,0.02590717915795,0.642577972243852,0.634675920009613,-0.218064058631153,2.98303826087547
0.69,0.807075261646204,98.774409408518,99.1785517316985,-0.0271003847349002,0.494152078565187,0.518003821372986,0.113948526488555,3.1554148501755
0.7,0.91045349500313,98.766705613549,99.1785517316985,0.0172143547582059,0.667750232606283,0.627726197242737,-0.153140087009004,2.7688049269704
0.71,1.01383199068192,98.7154618781596,99.1785517316985,0.0401638857989638,0.592011854671319,0.569171369075775,-0.284946796180851,2.8899894034494
0.72,1.11721357925393,98.7219391569244,99.1785517316985,-0.0699814952702452,0.538715453602601,0.602213203907013,0.371133965715584,3.38968209840565
0.73,1.22058671154274,98.7805632769171,99.1785517316985,-0.00735041933931646,0.677538826936662,0.640347540378571,-0.0211196261066105,2.78654650062791
0.74,1.32397297403574,98.6992041706573,99.1785517316985,-0.0523685992480216,0.526276830744524,0.573278903961182,0.249001460895534,3.3027962711607
0.75,1.42734730653204,98.7292156572714,99.1785517316985,-0.0380915276896861,0.49577535102786,0.563435614109039,0.156566506509282,3.42898630964963
0.76,1.53072087967235,98.7300995881437,99.1785517316985,0.00781291281336785,0.610172657304092,0.586202204227448,-0.115476473100883,2.86715871344883
0.77,1.63409951548128,98.7332310017348,99.1785517316985,-0.0615456050136888,0.524815224915957,0.541129469871521,0.301360863895569,3.12595404159347
0.78,1.73748720429937,98.7504492044122,99.1785517316985,-0.0496480415466435,0.557751937147333,0.547523319721222,0.237736841381358,2.95292706204598
0.79,1.84085858875533,98.7357913065182,99.1785517316985,0.0211830237060442,0.543580871089227,0.585217237472534,-0.21667360891531,3.24694545723603
0.8,1.94423276878108,98.7348598103746,99.1785517316985,-0.0547580818006796,0.550884623529593,0.5775306224823,0.273883308022911,3.17184858797678
0.81,2.04762601182261,98.7599828570164,99.1785517316985,-0.0471834034333123,0.565591454907042,0.562233507633209,0.2319290749226,2.97884952631081
0.82,2.15099142022069,98.7089108642024,99.1785517316985,0.051022732893008,0.56508356891365,0.552458047866821,-0.369373139825359,2.92321156068622
0.83,2.25437414613111,98.7005844239439,99.1785517316985,0.0198181533949097,0.528417759556158,0.568607747554779,-0.1734229233765,3.23927759209718
0.84,2.35775540324721,98.7572888598225,99.1785517316985,-0.00445801735738022,0.649519315243164,0.608006656169891,-0.0135747064920007,2.75314809196092
0.85,2.46112748344822,98.7761315730022,99.1785517316985,0.0332214494394003,0.584176957520357,0.605672299861908,-0.260167087414231,3.12719678911394
0.86,2.56449914662848,98.7294367823643,99.1785517316985,-0.0769699166191045,0.558634376293873,0.573257327079773,0.433527831726149,3.08836852936253
0.87,2.66788364064153,98.7705499656576,99.1785517316985,0.0566068536660268,0.57449547882103,0.613480508327484,-0.371512946409393,3.24155342577369
0.88,2.77125311424654,98.7593661992784,99.1785517316985,-0.0253534574187269,0.473593525986688,0.549121916294098,0.0805216363817834,3.46838277425938
0.89,2.8746230362201,98.7920773213459,99.1785517316985,-0.0166818147418126,0.586737652837279,0.621446907520294,0.0531529179720915,3.2188968437436
0.9,2.9780092189627,98.7504585263913,99.1785517316985,0.0159126487862204,0.551004395475156,0.573483467102051,-0.161057644594344,3.14670186266342
0.91,3.08138194211581,98.7171144932103,99.1785517316985,0.0186986911831895,0.563190010388924,0.524187684059143,-0.203661705830349,2.78641719568795
0.92,3.18475389756325,98.6991156090159,99.1785517316985,-0.0632594338272071,0.559120971213726,0.588100492954254,0.325874533825951,3.17459154418434
0.93,3.28813485245838,98.7059926737068,99.1785517316985,-0.00904920424033656,0.620561169738296,0.569382071495056,0.000790072835552311,2.70058574736082
0.94,3.39151834051428,98.7079857814951,99.1785517316985,-0.0224341289079214,0.510647697333896,0.567036271095276,0.0672609307007029,3.34755875812493
0.95,3.49489420418959,98.7473784127062,99.1785517316985,0.025102564120887,0.593059880838572,0.585195958614349,-0.197260448071033,2.93811193721898
0.96,3.59827179195399,98.7074878251882,99.1785517316985,-0.0323637233495457,0.593443221502087,0.573681533336639,0.168127027251657,2.87644004202009
0.97,3.7016484880516,98.7012122663617,99.1785517316985,-0.0648177405975448,0.491536100291685,0.534886837005615,0.347975089565544,3.2719350768719
0.98,3.8050238669046,98.7608556434269,99.1785517316985,0.0219990866921291,0.509216880924692,0.588005006313324,-0.176982475867083,3.46970061929689
0.99,3.90840392648895,98.7057993969567,99.1785517316985,-0.0395926386175462,0.650824972171438,0.623327672481537,0.177359550174203,2.82560682940783
1,4.01178518035822,98.7080959976937,99.1785517316985,-0.0629286675065303,0.468860541643308,0.479160726070404,0.335225520768545,3.06700251167555
1.01,4.11515643548624,98.74013729745,99.1785517316985,-0.0277075476183748,0.457384956490736,0.505043804645538,0.119505427928539,3.29140264702689
1.02,4.21852912559354,98.7328158967628,99.1785517316985,0.0687359392095549,0.536001669077308,0.578464031219482,-0.463218423579327,3.25027742099267
1.03,4.32190900292769,98.7171724639758,99.1785517316985,0.0477093266848646,0.644695587124621,0.606097221374512,-0.341486958536821,2.77248528103912
1.04,4.42529185051166,98.7721174930713,99.1785517316985,-0.0189573434507825,0.585370854808495,0.607759952545166,0.0584187765896973,3.13459318184265
1.05,4.52866462551413,98.7669133481911,99.1785517316985,0.0167273676609113,0.569566475078958,0.626393854618073,-0.161714482979615,3.32871819798586
1.06,4.63204881738746,98.7164033570467,99.1785517316985,0.063066556341737,0.595647947476701,0.581061363220215,-0.43647500029869,2.91108219809485
1.07,4.7354286265027,98.7752716545691,99.1785517316985,0.0296890969326985,0.550101586932605,0.592818737030029,-0.212281366406737,3.26096937934447
1.08,4.8387933740404,98.7324543795446,99.1785517316985,0.0369993849280156,0.600169829749645,0.586916267871857,-0.259241369697756,2.9232583228
1.09,4.94216970457065,98.6970164807433,99.1785517316985,0.0367479926675496,0.58163527648508,0.557877421379089,-0.241084371002139,2.87378269234714
1.1,5.04555767777304,98.7080846072936,99.1785517316985,0.062409179727031,0.521447151620934,0.521905541419983,-0.395435960774266,3.01299809446356
1.11,5.14892977142258,98.7084334401014,99.1785517316985,0.0657787100032784,0.481266024172567,0.542413830757141,-0.461882546247407,3.36402006018165
1.12,5.25231532727658,98.7008514432747,99.1785517316985,0.0157753372985754,0.540727259533925,0.586916446685791,-0.144639189779009,3.2599729491813
1.13,5.35569551223066,98.6885681914508,99.1785517316985,-0.0140560614631561,0.571955015179211,0.559571325778961,0.0254012819310375,2.92047029753235
1.14,5.4590628502629,98.7309456963815,99.1785517316985,0.0161622528825552,0.464155843434312,0.529753446578979,-0.181086711994227,3.39101722577175
1.15,5.56243613185424,98.7518246659715,99.1785517316985,-0.0427960631901337,0.613185731490214,0.587930202484131,0.219865813219037,2.84123113692918
1.16,5.66581885533993,98.7735940402764,99.1785517316985,0.0196534848765842,0.669768599434597,0.632726430892944,-0.167629480902659,2.77537494908243
1.17,5.76920199129087,98.6876753449784,99.1785517316985,-0.0308155934147687,0.404855791363398,0.489101439714432,0.137664593122971,3.49290416263805
1.18,5.87257025930634,98.7021117251468,99.1785517316985,-0.0096479157589193,0.528845746311234,0.56767064332962,0.0377091883231944,3.21956721563943
1.19,5.9759583430099,98.7086867783737,99.1785517316985,0.0306562395237492,0.54152191247409,0.579213380813599,-0.206063470105313,3.21126293356108
1.2,6.07933089847691,98.7213211425648,99.1785517316985,-0.0305372659169292,0.456040295517198,0.529748320579529,0.123348247646764,3.43836638232714
1.21,6.18269836039961,98.7256608827255,99.1785517316985,-0.00633699160195117,0.541933820436676,0.571620106697083,-0.0046650133294832,3.16350585332854
1.22,0.00289668446389868,98.7080446376292,99.1785517316985,-0.0147799686522464,0.639245030439131,0.596057772636414,0.0463893751401444,2.72583930499455
1.23,0.10627102996003,98.7387648077966,99.1785517316985,-0.00758442652873023,0.481664442226098,0.499157071113586,-0.0175817093732752,3.10985562231898
1.24,0.209645649402617,98.7659666747478,99.1785517316985,-0.00739846640747013,0.487253547900578,0.509085237979889,-0.0192529093334781,3.11942742278589
1.25,0.313027129493189,98.7052974582393,99.1785517316985,0.0141103204954058,0.542969411951889,0.589348018169403,-0.134987819730534,3.26048594119377
1.26,0.416406470166413,98.7245413657612,99.1785517316985,-0.025841550537972,0.584167257904663,0.576523780822754,0.0978929333560796,2.94329731418461
1.27,0.519783675507087,98.7351536536173,99.1785517316985,-0.017640319459504,0.527476068805932,0.546355843544006,0.0610170831443584,3.087880260123
1.28,0.623166042309881,98.706487969508,99.1785517316985,0.0130247608732846,0.486126132550057,0.504726946353912,-0.133823719657081,3.07280393171652
1.29,0.726531058510407,98.7041109450026,99.1785517316985,-0.014332295693565,0.622832576604526,0.578023016452789,0.0405205696758666,2.72666092971573
1.3,0.829908998232858,98.7127064909119,99.1785517316985,-0.0699964669081238,0.515806603579194,0.535648941993713,0.369133561981238,3.11663634384125
1.31,0.933289350189284,98.6802159282604,99.1785517316985,0.019839656541706,0.584149872863451,0.555615186691284,-0.187413023351707,2.80472466248175
1.32,1.03666542307005,98.7228954506121,99.1785517316985,-0.0448128777321173,0.518960376196352,0.531826913356781,0.20635647837278,3.07131871461656
1.33,1.14004722721674,98.7551693470606,99.1785517316985,-0.0105980710469959,0.537643425317028,0.590421378612518,-0.00285108165516301,3.31113680063498
1.34,1.24342111866103,98.7596356997701,99.1785517316985,0.0419502680410801,0.606636826097036,0.598384857177734,-0.341055775345733,2.93198530416257
1.35,1.34680064285261,98.7072435263087,99.1785517316985,0.0223718114513173,0.627218821897861,0.581461787223816,-0.204175718915726,2.71921053577433
