t,theta,omega,r,i_d,i_q,i_q_ref,v_d,v_q
0,0,0,126.370578471989,-1.26481157058205e-25,0,0,0,0
0.01,0.0643675795218496,126.522742041147,126.370578471989,0.144994844435844,7.48192649569923,10,-0.996437094321059,18.9675390486887
0.02,0.196240941061572,125.677660435165,126.370578471989,0.0434168864959016,0.83659864706182,0.868499994277954,-0.397299358654213,3.82060674185072
0.03,0.327883559175214,125.703615028356,126.370578471989,-0.0108418842378545,0.789816156128029,0.744828402996063,-0.0615371567497016,3.39749207830088
0.04,0.459549568589454,125.718637819089,126.370578471989,0.0603898875303232,0.829163322769921,0.795373141765594,-0.491670264300529,3.46715814980733
0.05,0.591219135647964,125.717243256088,126.370578471989,0.00562228613778443,0.805779231484134,0.773562014102936,-0.151971081076325,3.47379291536369
0.06,0.722875838817473,125.698661577524,126.370578471989,-0.0807490056223088,0.768940505381109,0.747471451759338,0.357145677895594,3.55837442357944
0.07,0.854537260403335,125.746109606919,126.370578471989,0.0382021496858686,0.799291056028029,0.770408570766449,-0.376324004501392,3.51801400531874
0.08,0.986199773227666,125.690814188097,126.370578471989,-0.095090302849373,0.714195196984095,0.712171137332916,0.410868240327747,3.67895194613957
0.09,1.11786673280218,125.796106753067,126.370578471989,-0.0275876146451895,0.756759948743501,0.794591784477234,0.0162211773697498,3.90546603187383
0.1,1.24952381934018,125.751105083932,126.370578471989,0.0672449846129525,0.813650965724751,0.807050406932831,-0.543581833776919,3.63915455100235
0.11,1.38118887555674,125.738037449646,126.370578471989,0.029400106978583,0.818470697916122,0.794046700000763,-0.294485776598062,3.52540486459052
0.12,1.51285186255446,125.730851787632,126.370578471989,0.00448442152897749,0.840495622803915,0.796252489089966,-0.154194990868973,3.40907753881864
0.13,1.6445157538293,125.724704971671,126.370578471989,0.00404882295561049,0.819783933586711,0.803731560707092,-0.126273498383949,3.58819778291458
0.14,1.77618331503946,125.801058589248,126.370578471989,-0.0215523781816399,0.859013873938222,0.834527552127838,0.0266005603945181,3.54185406099363
0.15,1.90784250399417,125.701999396556,126.370578471989,-0.0631608279953317,0.775327464617522,0.758009135723114,0.268861951870812,3.60243468911345
0.16,2.03950728010174,125.727179847605,126.370578471989,-0.0654628595648713,0.751689179752614,0.745186030864716,0.2846171436961,3.66135559192615
0.17,2.17117705257083,125.809977182011,126.370578471989,0.0284419307968863,0.647811610530309,0.689771413803101,-0.291117255280803,3.93275142233464
0.18,2.30283371231322,125.745471885294,126.370578471989,0.0751580387210854,0.720195095911878,0.772180795669556,-0.57151246425234,3.99093937521727
0.19,2.43449209893728,125.67600106939,126.370578471989,0.091337092634769,0.771586211720855,0.763174295425415,-0.66861085823914,3.633767912155
0.2,2.56615986448266,125.767782310503,126.370578471989,-0.00291299598799993,0.87712077584005,0.858004331588745,-0.0923480327855105,3.56685220087332
0.21,2.69781741166145,125.736512683812,126.370578471989,0.0727478712043854,0.861368071805332,0.868746638298035,-0.527316111015797,3.74199780978767
0.22,2.82947210997991,125.719899029152,126.370578471989,-0.0770338129501366,0.899481159036173,0.836558640003204,0.377382494876295,3.34360002209894
0.23,2.96113292878628,125.790503851021,126.370578471989,0.0324156947298138,0.896209374912921,0.81255704164505,-0.280925024443097,3.22372320818118
0.24,3.09279685365133,125.731075274953,126.370578471989,-0.0332484484818703,0.80863530443525,0.802748799324036,0.103584339464431,3.69094350369034
0.25,3.22446721944854,125.766377701218,126.370578471989,-0.106767293607175,0.73278271458804,0.738267064094543,0.549176435873611,3.74105371601052
0.26,3.35612722692949,125.71187682545,126.370578471989,0.112222949674189,0.697155494028415,0.709839105606079,-0.77724310017868,3.77545545599983
0.27,3.4877939810747,125.747477469979,126.370578471989,0.0993641161008111,0.686929163598538,0.747059941291809,-0.660678080130104,4.05043672152264
0.28,3.61945703851892,125.702360581768,126.370578471989,0.0168103315059998,0.811478158580887,0.783998429775238,-0.182693715043734,3.52681632242533
0.29,3.75111903415592,125.770781009298,126.370578471989,0.0851504590436678,0.848602653750227,0.807771146297455,-0.594300708086149,3.45403893492192
0.3,3.88278692492405,125.685525631457,126.370578471989,0.0252601523549071,0.789233700535955,0.754761576652527,-0.250456336408261,3.49330425025104
0.31,4.01444576833935,125.692493101937,126.370578471989,-0.072651065232899,0.77849002438165,0.763821482658386,0.338631836631369,3.6342004817677
0.32,4.14611802438521,125.675348715797,126.370578471989,0.0354426934244187,0.757814210412332,0.713950872421265,-0.319525495229222,3.44064793797092
0.33,4.27777489090403,125.695711293055,126.370578471989,-0.0831303777247552,0.71910667139632,0.725935280323029,0.384024644509764,3.75330534132543
0.34,4.40944204718347,125.767000875204,126.370578471989,-0.0181111150398631,0.788716998426826,0.765301525592804,-0.00612927570277459,3.55490242711126
0.35,4.54110501291489,125.670084446177,126.370578471989,0.0875359814858569,0.762945471461069,0.762098789215088,-0.64380218091982,3.68604591014696
0.36,4.67277362366119,125.68683429923,126.370578471989,0.0175875552639404,0.803278811051743,0.801340758800507,-0.204058309143475,3.67030545977967
0.37,4.80444279051686,125.725726511628,126.370578471989,0.0358171625525926,0.853125308871619,0.786767482757568,-0.323157763090877,3.28103860029037
0.38,4.93610329001061,125.702773206614,126.370578471989,-0.0191876993694757,0.90661564314291,0.844008147716522,0.0276975009593185,3.31758513904791
0.39,5.06777553582611,125.695231657657,126.370578471989,-0.0436210503267487,0.791385815347552,0.724175453186035,0.184234541197387,3.282563727994
0.4,5.19943215812109,125.683585928534,126.370578471989,-0.0667417241287893,0.815722955994354,0.836552500724792,0.320228208428614,3.82397521177876
0.41,5.33110094991246,125.724415180726,126.370578471989,-0.0492529989168812,0.745082800102011,0.721202611923218,0.209235272378091,3.54903921490601
0.42,5.46276383000554,125.704529741241,126.370578471989,-0.0665209081704167,0.656663601975866,0.665968716144562,0.291645357906445,3.74125333335031
0.43,5.59441849803185,125.744075489034,126.370578471989,0.00455851470127834,0.703533531731866,0.729668200016022,-0.0971170117770726,3.84846258534106
0.44,5.72609298545592,125.745110018335,126.370578471989,0.0297238759188859,0.723842015642125,0.738310158252716,-0.26394230226389,3.75935136953053
0.45,5.8577527325068,125.729742899881,126.370578471989,0.0135052443932923,0.888773012118771,0.811121821403503,-0.153373863917432,3.21368832625379
0.46,5.98942757910004,125.724790172638,126.370578471989,0.0357697463971686,0.819988921274468,0.806947946548462,-0.311222322265385,3.59493999257856
0.47,6.12109666659914,125.714768876676,126.370578471989,-0.0134822868233267,0.827935348593275,0.740896701812744,-0.0311214120894374,3.1518543235816
0.48,6.25275751818788,125.802196395544,126.370578471989,0.0454880363215107,0.863547914865775,0.852302730083466,-0.391466392365647,3.61314511490895
0.49,0.101234362255267,125.721806774581,126.370578471989,-0.116968115277426,0.756398504251447,0.758440554141998,0.57315230198654,3.69632969601137
0.5,0.232904462564748,125.720231731867,126.370578471989,-0.0114006481992274,0.648469037799511,0.701919317245483,-0.0514575084456452,3.99476002538643
0.51,0.364555499027364,125.772450045501,126.370578471989,-0.0368753948999893,0.765693027802926,0.808063566684723,0.0792421490902661,3.93585867466058
0.52,0.496213110335932,125.696986609081,126.370578471989,0.0467768570297261,0.764407181272471,0.769597470760345,-0.403409756689269,3.71650766777762
0.53,0.627878634096228,125.717492965888,126.370578471989,0.0353571744483791,0.843719972998952,0.828780233860016,-0.339606783826676,3.59056502117573
0.54,0.759535468085542,125.765787963602,126.370578471989,0.0761032189208238,0.849253078800121,0.81521201133728,-0.58218394050237,3.49491117522987
0.55,0.891201003884263,125.70130120504,126.370578471989,-0.0604797723449615,0.900199310578994,0.838758826255798,0.247301955951659,3.33146530784199
0.56,1.02285596515548,125.721762342287,126.370578471989,-0.0176917324404403,0.906390117844623,0.872174441814423,-0.000408929210048536,3.51077669994792
0.57,1.15452703353337,125.762903961487,126.370578471989,-0.0362044322531708,0.777657966376848,0.73876941204071,0.0965373496306477,3.4726831842382
0.58,1.28619301303925,125.689528436071,126.370578471989,-0.104460395375888,0.63129904327367,0.635140061378479,0.483803902741139,3.72128759483011
0.59,1.41784902868652,125.766123222143,126.370578471989,0.0108923059333025,0.755966720667385,0.731720328330994,-0.213144278908185,3.55541508485399
0.6,1.54950456544493,125.710875804227,126.370578471989,0.0703073495385867,0.805227663282385,0.832263946533203,-0.558431067462879,3.86459881497355
0.61,1.68117176222413,125.736115259896,126.370578471989,0.0136721731525443,0.812117749346768,0.776408910751343,-0.193296276196775,3.47978420285074
0.62,1.81283857402362,125.685791261978,126.370578471989,-0.0362064499149978,0.708504034119699,0.685414731502533,0.129658392330601,3.55069545203
0.63,1.94449383634734,125.682426480232,126.370578471989,-0.0426161301192313,0.782150236400803,0.745613813400269,0.173938884622062,3.49039322367208
0.64,2.07615996624935,125.736391950577,126.370578471989,0.0312455779807551,0.908914674369402,0.828102231025696,-0.286613448618351,3.22435326048215
0.65,2.20781867760146,125.697575515392,126.370578471989,-0.0588093979822842,0.820224896475122,0.835513591766357,0.220039135697761,3.81270566365735
0.66,2.33948856290144,125.723713063675,126.370578471989,-0.0311340634116348,0.74317273191579,0.715522825717926,0.0402433687175442,3.54833323579879
0.67,2.47115285109817,125.739375188536,126.370578471989,-0.0135993170353223,0.764892073400089,0.738685786724091,-0.0702248518247462,3.55154177318455
0.68,2.60281333840127,125.735174887956,126.370578471989,0.00913177521392017,0.701145868776023,0.735471785068512,-0.183052139509458,3.91099494998626
0.69,2.73447495331628,125.67986804166,126.370578471989,0.102900758827687,0.769969715764178,0.759673535823822,-0.751047261437197,3.64104725440468
0.7,2.86614318523164,125.755780854919,126.370578471989,-0.0133317405235306,0.849206565283249,0.789882302284241,-0.0412847301694347,3.33740699531436
0.71,2.99781445683086,125.732217932695,126.370578471989,0.0378608369481953,0.81970294532852,0.796672523021698,-0.342463592995611,3.55462626874308
0.72,3.12948413846728,125.674847606278,126.370578471989,-0.0514889733474072,0.771842669890329,0.747016489505768,0.221438476500571,3.54618488434908
0.73,3.26114168552965,125.751903265797,126.370578471989,0.0104766318715799,0.854183121899583,0.78920567035675,-0.123113602090636,3.31851264403317
0.74,3.39280115058578,125.731439969088,126.370578471989,-0.0254926951698466,0.788091592532135,0.777026176452637,0.0758112503704619,3.65029130577937
0.75,3.52447472557081,125.765398688393,126.370578471989,-0.100482773524199,0.732819655347875,0.734721004962921,0.533563034503865,3.70438227807304
0.76,3.6561288440495,125.70932534366,126.370578471989,0.0241946177798846,0.742247446505267,0.723851382732391,-0.2215897798589,3.58527777751049
0.77,3.78779570841325,125.763476302006,126.370578471989,0.124838614133093,0.750090315044528,0.819720268249512,-0.817330837640206,4.10485315600266
0.78,3.91947008080393,125.705124390226,126.370578471989,0.0571234981971583,0.798655210702567,0.763853907585144,-0.427988635090488,3.46643948260446
0.79,4.05112771293229,125.722093027324,126.370578471989,0.0328452938747594,0.837293853965474,0.795474171638489,-0.2715931383196,3.43760425115525
0.8,4.18279137929227,125.716450855917,126.370578471989,-0.0483378386965553,0.876118264564906,0.803438782691956,0.227347736518077,3.2571047151203
0.81,4.31445397989532,125.734645073253,126.370578471989,-0.0321199542172709,0.856407212181417,0.775067269802094,0.11462853554608,3.21397740949638
0.82,4.44611632123417,125.737713894189,126.370578471989,0.00557079435073235,0.811019565404413,0.799844861030579,-0.107256524459379,3.6404074716892
0.83,4.5777798815101,125.741593921627,126.370578471989,-0.0408384130746647,0.71009461408935,0.756681501865387,0.160968479173753,3.98473772047896
0.84,4.70944167492494,125.790137801673,126.370578471989,-0.00169758838335639,0.743356195486362,0.816236972808838,-0.0543289172008261,4.13472924340427
0.85,4.84110763074651,125.766839263199,126.370578471989,0.0966879955677077,0.796149120135438,0.784331202507019,-0.659221220927585,3.61402873684485
0.86,4.97277723704329,125.726437368952,126.370578471989,0.0202180578231442,0.810821816280562,0.786785542964935,-0.186653217052435,3.52992626183195
0.87,5.10443750643695,125.742243170499,126.370578471989,0.0494774020651673,0.895525605172652,0.840469419956207,-0.359817739872935,3.35509767432689
0.88,5.23609739434545,125.725804667319,126.370578471989,-0.0126696361874535,0.830517486027057,0.793907284736633,0.0176741639656255,3.47886092958158
0.89,5.36777900275824,125.710801670207,126.370578471989,-0.0470583574682198,0.778576507441958,0.731616020202637,0.205282745151078,3.40005443145428
0.9,5.49943641700358,125.671507824292,126.370578471989,-0.0776645699296549,0.773612205735087,0.768701434135437,0.386915417193894,3.66984819400645
0.91,5.63109645470736,125.703678186666,126.370578471989,-0.0377962706880086,0.742755187725343,0.729049742221832,0.150621848764872,3.61750208096124
0.92,5.76275397766896,125.790776349689,126.370578471989,-0.0130048300994443,0.728716594818063,0.797299683094025,-0.0104901789103955,4.11371958564972
0.93,5.89441159157156,125.80117647923,126.370578471989,0.0149093829484994,0.857106654561938,0.836846590042114,-0.174722422770343,3.57975158463987
0.94,6.02607716996994,125.717811534537,126.370578471989,0.0951066030269255,0.794547975855371,0.785180747509003,-0.661836419743943,3.64335344732968
0.95,6.1577393422003,125.738647490277,126.370578471989,0.00519264974109973,0.853483202869235,0.809314787387848,-0.118086935403203,3.44132162806428
0.96,0.00622578461439716,125.741897637219,126.370578471989,0.0916641860433659,0.860058118672034,0.861700057983398,-0.621787293900906,3.71363897963266
0.97,0.137885958458774,125.671762832825,126.370578471989,-0.0226206302305685,0.767188220276311,0.721057236194611,0.059966790512972,3.4421571416407
0.98,0.269561279638925,125.773898944857,126.370578471989,-0.000499701641830053,0.838323312997699,0.796104490756989,-0.0576579985380139,3.45159752895124
0.99,0.401227256893749,125.706671317369,126.370578471989,-0.109003231299761,0.75477031005818,0.761104881763458,0.576700660975997,3.74111886916737
1,0.532892708760055,125.820438693105,126.370578471989,-0.0724309987283386,0.776543653320321,0.773416757583618,0.375810902649031,3.67392036624533
1.01,0.664558331559718,125.710506199218,126.370578471989,0.0799207768016212,0.706624325613526,0.724472045898438,-0.54287006408879,3.78246434829803
1.02,0.796218311097606,125.728696149623,126.370578471989,0.0512740045807103,0.772697608256796,0.822136342525482,-0.366575658779095,3.97283260735652
1.03,0.927876367442417,125.732756943268,126.370578471989,0.0499247131094956,0.848274029168009,0.832731783390045,-0.381896092230861,3.59466033736924
1.04,1.0595410180425,125.726364559799,126.370578471989,-0.00456840676292181,0.79389222796074,0.79925662279129,-0.0542703005154558,3.72541891236345
1.05,1.19120697307964,125.649849068989,126.370578471989,-0.0281661779876572,0.814270018063659,0.800570428371429,0.0915086027318407,3.61529719110355
1.06,1.322867623682,125.740749922178,126.370578471989,-0.0866057724689711,0.820983133570725,0.754821360111237,0.436394110460811,3.31315788957714
1.07,1.45453210766665,125.704078252009,126.370578471989,-0.0879860404408871,0.819395350442096,0.783584892749786,0.47187336551209,3.49594385677219
1.08,1.58619508157799,125.739073123134,126.370578471989,-0.0442002982661283,0.724336348629524,0.740252137184143,0.181145182747858,3.80277651362043
1.09,1.71785153325931,125.786613768549,126.370578471989,0.0194841053843183,0.829689933343434,0.804087042808533,-0.205616993682291,3.55230949860257
1.1,1.84951673932975,125.705715995687,126.370578471989,0.087033627005639,0.798468414494021,0.821446180343628,-0.633642844492106,3.83077131806379
1.11,1.98117713550506,125.69014351961,126.370578471989,0.0493949286351036,0.799902003131357,0.794689357280731,-0.395077756576182,3.66738548964187
1.12,2.11284617947751,125.671854229184,126.370578471989,-0.0115105252791305,0.800647814251164,0.77399605512619,-0.0314122023772378,3.53414355252949
1.13,2.24450660979785,125.725349259454,126.370578471989,-0.0263542498102007,0.877857467708741,0.787154734134674,0.0653540647698213,3.15838659599095
1.14,2.37618269953231,125.698766916694,126.370578471989,-0.0248691775684871,0.792806563852465,0.721679329872131,0.0637663821266695,3.26694841282255
1.15,2.50784588097684,125.667357943559,126.370578471989,-0.028911078046687,0.805468772839571,0.816712617874146,0.082583273581745,3.76552564039984
1.16,2.63951498326363,125.741292340296,126.370578471989,-0.0529570296250644,0.762680549831789,0.739076316356659,0.227658236625939,3.54648246941318
1.17,2.7711680712862,125.74931793124,126.370578471989,-0.0496239454071601,0.689306674202154,0.718755722045898,0.174813642494397,3.87011307367019
1.18,2.9028350833517,125.689225423459,126.370578471989,0.103365734882755,0.68606294700197,0.681847870349884,-0.733664000161308,3.65174094913244
1.19,3.03449683512329,125.720100336106,126.370578471989,0.101345085525376,0.785357301140756,0.776982843875885,-0.724780135711282,3.62855537558789
1.2,3.1661725173353,125.718872605776,126.370578471989,-0.0264661636731108,0.813412957755745,0.754855453968048,0.0244723034040315,3.31124721604754
1.21,3.2978305041298,125.717514072551,126.370578471989,0.0815202879433014,0.830585069457845,0.803898513317108,-0.624990307972981,3.51751529686877
1.22,3.42949261941204,125.709740431675,126.370578471989,-0.0269109477082007,0.831279916753785,0.803247690200806,0.0120988771939756,3.52069839295601
1.23,3.56115806246509,125.732876740712,126.370578471989,-0.0392959735068382,0.756976695355958,0.776332795619965,0.102404936802104,3.80814353342812
1.24,3.69281386187336,125.778767300216,126.370578471989,-0.0932908123651782,0.893142205164001,0.874064803123474,0.413755599290858,3.58812172639549
1.25,3.82448242439453,125.747253454924,126.370578471989,-0.0800492456848305,0.632043474370324,0.712521374225616,0.338089298066856,4.16999814972928
1.26,3.95613864411721,125.744088631912,126.370578471989,0.0893986172858157,0.722974110958452,0.756686508655548,-0.700274795461874,3.88924317920708
1.27,4.08780002927456,125.731291461678,126.370578471989,-0.00553413274940934,0.796781026643687,0.754319310188293,-0.106611064949503,3.42915594238068
1.28,4.21946652557076,125.72307779326,126.370578471989,0.0313543476409764,0.815503690480511,0.78207790851593,-0.315645736284227,3.4781904694348
1.29,4.35113492810945,125.722479739855,126.370578471989,0.0511627215082082,0.819692262633704,0.812478601932526,-0.435662970303125,3.63684142625241
1.3,4.48278872028481,125.682422535092,126.370578471989,-0.0154926074095569,0.828923411617122,0.816660583019257,-0.0170072652503811,3.62685405557824
1.31,4.61444927511401,125.702725653425,126.370578471989,-0.0542292975893563,0.77350608450137,0.749457657337189,0.222165594987459,3.56796810688726
1.32,4.74610731636477,125.753100468508,126.370578471989,0.00554827782541598,0.842656118055744,0.83890163898468,-0.138019597651829,3.69710420667461
1.33,4.87777734968444,125.719851195039,126.370578471989,-0.0348029079044506,0.692945910231253,0.737259566783905,0.108871589606377,3.97384337672603
1.34,5.00943665801306,125.743648086489,126.370578471989,-0.055545259157211,0.749690254578137,0.766361892223358,0.249339743340681,3.8022641340334
1.35,5.14109376434936,125.722520528553,126.370578471989,0.0923093637656146,0.796919626170958,0.799088716506958,-0.64174281776816,3.71016999807836
