t,theta,omega,r,i_d,i_q,i_q_ref,v_d,v_q
0,0,0,250.880318242083,-2.94258902143941e-24,0,0,0,0
0.01,0.0619243434146151,121.917007373632,250.880318242083,0.153083672521454,7.45403202552352,10,-1.06371916167841,19.1594392211585
0.02,0.254578521573586,243.518297901739,250.880318242083,0.177459138042941,7.54444249648208,10,-1.53870128359886,22.099866585793
0.03,0.516167704476388,249.674859387049,250.880318242083,0.0597191991900395,1.38131920484618,1.47300791740417,-0.89543919952187,8.01385190896093
0.04,0.777556404844316,249.606213829558,250.880318242083,0.0190706785312074,1.5478857241823,1.72870051860809,-0.635302750227426,8.70228252407105
0.05,1.03898393227575,249.42817415248,250.880318242083,-0.0463565148903131,1.37135204096083,1.51437318325043,-0.266662997828226,8.58412329340901
0.06,1.30042082316255,249.757394123141,250.880318242083,-0.0782699020990449,1.33471629113647,1.29948127269745,-0.0928143894658505,7.59806839386228
0.07,1.56184266157496,249.676406599058,250.880318242083,-0.0130485531695683,1.29778877629235,1.39067924022675,-0.473865500882786,8.44783590305528
0.08,1.82327413394326,249.605594944681,250.880318242083,0.111740676636434,1.55296838818051,1.64131307601929,-1.22689593677743,8.49735273328336
0.09,2.08474855291768,249.46958549721,250.880318242083,0.00269096566298577,1.37747079066035,1.4742968082428,-0.553501374892077,8.57640398827046
0.1,2.34621445749819,249.770215080266,250.880318242083,-0.0152399380349308,1.31209336988055,1.19531404972076,-0.461761797155646,7.32805241684214
0.11,2.60766141565955,249.808718703948,250.880318242083,0.00681958072466404,1.4341798650752,1.44644474983215,-0.60454240820614,8.13507264963336
0.12,2.86914506020091,249.64574252407,250.880318242083,0.0228695490879027,1.63788575887162,1.73047852516174,-0.672009583134495,8.60351051085012
0.13,3.13062404336752,249.545758357621,250.880318242083,0.0265606964708739,1.42872096659751,1.50162994861603,-0.71417123419708,8.50309965187512
0.14,3.39207557968168,249.698313576942,250.880318242083,-0.0888980973561184,1.2816497016758,1.2567024230957,-0.0311175763490784,7.97517144492868
0.15,3.65351936897984,249.804309056926,250.880318242083,0.0405052890275104,1.34110869007293,1.36930894851685,-0.785940623651168,8.33202109896602
0.16,3.91497935237038,249.617785720921,250.880318242083,0.0930764813309815,1.56390247971752,1.62802743911743,-1.10735965459187,8.57377119283012
0.17,4.17646332156248,249.571177890495,250.880318242083,0.0218037309869733,1.42188934957646,1.44276392459869,-0.671638589565032,8.32023464681637
0.18,4.43794872431747,249.768777944214,250.880318242083,-0.0146068466871609,1.35913276136332,1.27118587493896,-0.439522750253494,7.66143137401933
0.19,4.69940831985008,249.783605442523,250.880318242083,0.0290007120083176,1.41703133165958,1.39862930774689,-0.71037188749663,8.09147092776084
0.2,4.96089286099508,249.682565670891,250.880318242083,0.0389511737785443,1.55715608210293,1.65461504459381,-0.772958701134426,8.77997738011796
0.21,5.22239692632269,249.539983732697,250.880318242083,-0.0472363291362516,1.46203773912788,1.47678124904633,-0.254780581440799,8.25699689179164
0.22,5.48387668692365,249.750198070097,250.880318242083,-0.0164796368381078,1.33983381694003,1.31518495082855,-0.445990428639413,8.02530299861057
0.23,5.7453333001678,249.81273021975,250.880318242083,0.113306932288359,1.42548708495385,1.44630944728851,-1.23155432697776,8.31512084311804
0.24,6.00680677876633,249.645691142993,250.880318242083,0.017471365429648,1.57241660022286,1.59554541110992,-0.635209426629123,8.33300214073631
0.25,6.26829610126071,249.546395997431,250.880318242083,-0.0201999661198613,1.40636154357658,1.43918812274933,-0.409610538460481,8.385635456254
0.26,0.246591886180193,249.728024734688,250.880318242083,-0.0308119520378282,1.35982161968583,1.3574001789093,-0.354053995764727,8.1717357307719
0.27,0.508051097610474,249.842272962725,250.880318242083,0.00729436585166354,1.48587900176447,1.48375964164734,-0.582257277102112,8.18118070325059
0.28,0.769540387245703,249.630180370502,250.880318242083,0.0334019340903081,1.60899013977595,1.73154759407043,-0.762339968919757,8.90801654215841
0.29,1.03104647113036,249.570490163201,250.880318242083,-0.0113655327260657,1.50300795927952,1.56173074245453,-0.492435721111136,8.49868188106753
0.3,1.2925332881709,249.721501968686,250.880318242083,0.00233641714866956,1.35148292067067,1.32084548473358,-0.585158297760223,7.9527128099637
0.31,1.55398464517166,249.737817689694,250.880318242083,0.0953731960311429,1.37522580913748,1.38370168209076,-1.16174718617181,8.21281588924288
0.32,1.81546623335285,249.681024400671,250.880318242083,0.00696873495809325,1.58243152331301,1.71360158920288,-0.625204152091692,8.94486958825612
0.33,2.07695036879838,249.546171855968,250.880318242083,-0.0153439800545546,1.47975649797374,1.5148561000824,-0.478703474493597,8.37256296917527
0.34,2.33844341078572,249.795915001958,250.880318242083,-0.0283671468508374,1.34241810990171,1.27661287784576,-0.413511447253685,7.75033128794707
0.35,2.59989670700855,249.772521950924,250.880318242083,0.0511129527907759,1.52229749514218,1.50202143192291,-0.894951576835408,8.04497015008051
0.36,2.86137893625822,249.658804253625,250.880318242083,0.00605393300944235,1.55796911085574,1.66209721565247,-0.602003130435981,8.79315331452901
0.37,3.12286147847275,249.560916024721,250.880318242083,-0.0774889344922509,1.44542861792549,1.45892548561096,-0.106624121545864,8.25740936936575
0.38,3.38434225508417,249.742919068211,250.880318242083,0.00524279529262778,1.36282972995398,1.38903868198395,-0.615566876455316,8.33236181252835
0.39,3.64579270095068,249.711997928135,250.880318242083,0.0966204426295641,1.49229515845898,1.55911886692047,-1.15745074088182,8.60137632028874
0.4,3.90727766892051,249.673546976246,250.880318242083,-0.0305637696216267,1.62774015928544,1.66793119907379,-0.399716603951851,8.43736020722065
0.41,4.16877589760467,249.534179812359,250.880318242083,-0.059744819382479,1.34742749159686,1.36126148700714,-0.210222184961835,8.26682542144435
0.42,4.43025719431615,249.84209706748,250.880318242083,-0.0596311191289651,1.37884186693679,1.38547801971436,-0.207819246030541,8.21735205962088
0.43,4.69173011012163,249.860614441543,250.880318242083,0.0838188425437229,1.55230151386995,1.58414816856384,-1.06409780877225,8.35885758415475
0.44,4.95321114412844,249.619684206222,250.880318242083,-0.0638779515474,1.62776744198667,1.71206569671631,-0.155774068143681,8.67212382196088
0.45,5.21470053577794,249.492239219159,250.880318242083,-0.000886908806180586,1.3489994661425,1.38692319393158,-0.562033530875015,8.39475898482149
0.46,5.47617004649421,249.807131273557,250.880318242083,-0.0573704508051197,1.29426520322062,1.22891759872437,-0.236832693736611,7.78600450422377
0.47,5.73762193331383,249.695374153421,250.880318242083,0.0468750670225643,1.50900560798246,1.59138226509094,-0.830861590273884,8.69096287053449
0.48,5.99910720132825,249.629853922995,250.880318242083,-0.0082176511844595,1.52613746609691,1.60552668571472,-0.501979750515818,8.6671240535575
0.49,6.26060366612403,249.531167046161,250.880318242083,0.000909423818619332,1.36499582292947,1.39928352832794,-0.561926526888173,8.38331778884704
0.5,0.238911281019718,249.763429052879,250.880318242083,-0.0477028901448169,1.30318870591233,1.29757726192474,-0.26863750445892,8.12011400571852
0.51,0.500364251036565,249.753915102751,250.880318242083,0.0854331325196996,1.50894408798373,1.53569996356964,-1.07456015867917,8.33225628385663
0.52,0.761846448518789,249.661902763622,250.880318242083,0.0179127378432945,1.61590501125175,1.65562307834625,-0.660602624049572,8.4046560614359
0.53,1.02335722829102,249.632598711803,250.880318242083,-0.0174585361347472,1.37631617839575,1.36001908779144,-0.449449305160615,8.0361044110826
0.54,1.28483763892461,249.864683927382,250.880318242083,-0.0874615448941224,1.32104235313266,1.29645550251007,-0.0296221919253103,7.9786703595198
0.55,1.54628538554336,249.733356643254,250.880318242083,0.0854976984998598,1.51075152818612,1.56675910949707,-1.06324247829898,8.48711781661938
0.56,1.80777062752318,249.625875882627,250.880318242083,0.10496742184894,1.55726987909445,1.61821055412292,-1.18503434112468,8.50801725352918
0.57,2.0692657228726,249.60674320187,250.880318242083,-0.0124891888084034,1.36824330215065,1.35302579402924,-0.499997822535752,8.04289662109601
0.58,2.33074116942336,249.868417463238,250.880318242083,-0.0419883310062005,1.38631958855887,1.37299680709839,-0.316944263355706,8.0547442802771
0.59,2.59221481224676,249.82147282381,250.880318242083,0.0260403737852155,1.5385289525653,1.51430606842041,-0.706464062327811,7.97425754749193
0.6,2.85370335701868,249.580762052197,250.880318242083,0.0244413474489049,1.48826787237701,1.5578761100769,-0.692892785202049,8.53079598501707
0.61,3.11518988730936,249.547992775931,250.880318242083,-0.0156540434803039,1.35095203055905,1.3919438123703,-0.440455986421903,8.36527561520591
0.62,3.37665128960307,249.861599443623,250.880318242083,-0.0689331519531627,1.34484288851454,1.37797248363495,-0.12765987952828,8.3458608915726
0.63,3.63810355183156,249.690561031925,250.880318242083,0.0148302593768581,1.51536105880838,1.56860315799713,-0.632786364836244,8.48482447975816
0.64,3.89960154810435,249.620958132506,250.880318242083,0.0633889359169413,1.55380662976487,1.5872415304184,-0.913620610306232,8.34095049756895
0.65,4.16109573029938,249.660220614542,250.880318242083,0.0555453686450609,1.38222558288622,1.33973932266235,-0.875270954268568,7.87846946844263
0.66,4.42256575133243,249.813843310572,250.880318242083,-0.0739526274715065,1.38242899884967,1.43319547176361,-0.110043742296352,8.44625943984112
0.67,4.68401826995693,249.68942415913,250.880318242083,0.0880916385658217,1.48979065618901,1.54313707351685,-1.07868437830182,8.48582308203406
0.68,4.94549100042623,249.620728913533,250.880318242083,-0.0298907706556077,1.60830194147819,1.68381404876709,-0.360740820301928,8.63248440863214
0.69,5.20699628174215,249.643737015473,250.880318242083,-0.0629104545958226,1.36334994477128,1.35620987415314,-0.167014155608322,8.1086308345826
0.7,5.46845799085813,249.859977859689,250.880318242083,-0.017765954067934,1.38579881912541,1.41811752319336,-0.436903802421665,8.36709379212541
0.71,5.7299395516452,249.783573736793,250.880318242083,0.0602019244238243,1.52739306772034,1.51749014854431,-0.90041913668581,8.08775171931333
0.72,5.99143151700903,249.683133319428,250.880318242083,0.0398447205371723,1.63798335287518,1.73156177997589,-0.782988958005681,8.69217056147922
0.73,6.25294458368384,249.715583408059,250.880318242083,0.0116781385521179,1.37812078321984,1.28982317447662,-0.635509096671852,7.5639329981568
0.74,0.231205223385217,249.859007669864,250.880318242083,-0.0694185746593442,1.39121651567163,1.44434380531311,-0.157360920302424,8.45286898888977
0.75,0.492668271766007,249.732602643033,250.880318242083,0.0204427630400872,1.53808088059572,1.60119020938873,-0.69428929464031,8.52502722463305
0.76,0.754155495157697,249.558374181489,250.880318242083,-0.031157291062659,1.48252571747737,1.56861042976379,-0.377461009020095,8.65405845025219
0.77,1.01565468986306,249.732380573234,250.880318242083,0.00779192772167425,1.38246311027995,1.28027820587158,-0.618604963296724,7.50512474150766
0.78,1.27712187564527,249.831960863563,250.880318242083,-0.0306022036307665,1.37881276278654,1.41217041015625,-0.387565929881107,8.32907366537046
0.79,1.53857761376235,249.721656745036,250.880318242083,0.000401712513525831,1.52739331231368,1.55431544780731,-0.55015810688965,8.31079743249463
0.8,1.80007137913345,249.629352279931,250.880318242083,-0.0568640206301685,1.54613828086444,1.63275361061096,-0.19671732747193,8.65471183043947
0.81,2.06156729017129,249.732974393604,250.880318242083,-0.0540941441158452,1.37273536733191,1.27432370185852,-0.190334749415606,7.53094653770851
0.82,2.32305926687673,249.820489449324,250.880318242083,-0.0119340856268061,1.23431074330323,1.22945868968964,-0.449950396722553,8.06233359406734
0.83,2.58450784064566,249.73309413292,250.880318242083,0.0431314150844538,1.52430743287685,1.58372581005096,-0.771341781540372,8.48006093093515
0.84,2.84598566559471,249.631804322354,250.880318242083,-0.00582587220606712,1.55706210584755,1.60927474498749,-0.474430524624409,8.44896635309793
0.85,3.10747320918588,249.660760551036,250.880318242083,-0.031609127301815,1.32246834981636,1.26283645629883,-0.324461168909962,7.78116589242244
0.86,3.36892240518871,249.907076524115,250.880318242083,0.00190103636180065,1.4324107099462,1.42704510688782,-0.543558731994859,8.14490880406891
0.87,3.63040077750199,249.866093433243,250.880318242083,0.0743962030165746,1.54535130204012,1.51634585857391,-0.978453202735375,7.98983524920704
0.88,3.89189403238018,249.618240457394,250.880318242083,0.03418195910685,1.54675157374843,1.58195674419403,-0.725823758225607,8.36415827061661
0.89,4.15340008973488,249.744576367013,250.880318242083,-0.0184971756517412,1.36828638196175,1.25503015518188,-0.424856940722761,7.4464758387852
0.9,4.41486115960288,249.840416818599,250.880318242083,-0.0068862015608766,1.33087011272971,1.37626326084137,-0.510055648891613,8.41383793376303
0.91,4.67632785287165,249.730013252839,250.880318242083,0.027754059824888,1.51600425717821,1.5310320854187,-0.707966854279158,8.23626139820544
0.92,4.93781877370643,249.555432402188,250.880318242083,-0.0380006921689594,1.50455986949367,1.52857792377472,-0.309358727842143,8.27619398442778
0.93,5.19931661832989,249.648206262521,250.880318242083,-0.061674900881987,1.31536578108729,1.23335778713226,-0.177273479366483,7.61995707102018
0.94,5.46079581900038,249.857772435965,250.880318242083,-0.0358798678458413,1.27508747506979,1.27760553359985,-0.322686299875576,8.11600974385084
0.95,5.72225666054061,249.666571839796,250.880318242083,0.0137889218352687,1.50279080196995,1.54987370967865,-0.618589174053237,8.3937183520726
0.96,5.98373496927719,249.646252038081,250.880318242083,0.0122130126388008,1.59773730297239,1.65852797031403,-0.593866931060503,8.48593056866361
0.97,6.2452334096089,249.706840804354,250.880318242083,-0.0128107784886624,1.36906501529089,1.33577919006348,-0.45749732076302,7.90047365745041
0.98,0.223524772389201,249.820651065652,250.880318242083,0.0646037502475573,1.32774394337046,1.31523621082306,-0.951228425163325,8.01976070994987
0.99,0.484993675170109,249.770065080475,250.880318242083,-0.00970637516412703,1.54090312501715,1.54816484451294,-0.495832632337105,8.14382824935143
1,0.746482146509738,249.534021158292,250.880318242083,-0.00496512754083611,1.43268206715668,1.48168778419495,-0.545018878238914,8.39227701851812
1.01,1.00797075631141,249.70161966863,250.880318242083,-0.0720366469885863,1.31974309559679,1.23917651176453,-0.154904620479713,7.60999734230767
1.02,1.26942753355933,249.88011663613,250.880318242083,-0.0337586877863495,1.40824265233069,1.4201192855835,-0.383185005477542,8.18916604907604
1.03,1.53089908511393,249.672328041904,250.880318242083,0.10215569332905,1.48188931142619,1.53674530982971,-1.19229123800713,8.44175638967159
1.04,1.79238481823836,249.572333202027,250.880318242083,0.0360354986496234,1.47549571266995,1.56462013721466,-0.79381000833249,8.64834085978284
1.05,2.05387267314155,249.777236539523,250.880318242083,-0.0539745814350198,1.35778029560226,1.25467610359192,-0.258966557549181,7.49511786213679
1.06,2.31534986093482,249.822192767325,250.880318242083,0.0510888945603697,1.32383960772156,1.26522982120514,-0.882019400125796,7.75152560210029
1.07,2.57681820999827,249.690946738372,250.880318242083,-0.0232181385557363,1.51437571749512,1.54004991054535,-0.418541267495031,8.2615950589633
1.08,2.83828890113976,249.654721981453,250.880318242083,-0.072277436606618,1.59054271425983,1.64509093761444,-0.107309703340645,8.4616662559359
1.09,3.09979162189921,249.705851196792,250.880318242083,-0.0456022078518599,1.3190105422333,1.27735674381256,-0.287930429243417,7.85877813222135
1.1,3.36124964698677,249.794430790514,250.880318242083,0.0122509077051335,1.38692953846266,1.39707684516907,-0.647909583195966,8.18670516441328
1.11,3.62270578872485,249.597911956367,250.880318242083,0.0446227849097638,1.4753347436322,1.57293832302094,-0.834293981481402,8.73940425337706
1.12,3.88418465325447,249.584626762113,250.880318242083,-0.0045347610226284,1.504712611019,1.52014672756195,-0.50761457129444,8.26198391974712
1.13,4.1456812405687,249.768284813829,250.880318242083,-0.106607274483227,1.34726672047927,1.27217030525208,0.0941433062904437,7.69985823778504
1.14,4.40714360899482,249.78204746322,250.880318242083,0.0679130722019006,1.37337092754852,1.36422622203827,-0.941723104889045,8.10606745033722
1.15,4.6686282049118,249.793670275665,250.880318242083,0.0551583651006654,1.52696919319906,1.52436971664429,-0.856432933584459,8.1249152351614
1.16,4.93011156818579,249.596366099801,250.880318242083,0.0296212322899739,1.47755719243206,1.5556093454361,-0.698004093365599,8.6152900164413
1.17,5.19160310091777,249.726578394049,250.880318242083,-0.0106526869095713,1.32020887336399,1.26888060569763,-0.46028919950557,7.82908336008258
1.18,5.45304905194953,249.813419027243,250.880318242083,0.00650680050470231,1.47465966554647,1.5637092590332,-0.579064624802055,8.70255413193463
1.19,5.7145242737016,249.679182601675,250.880318242083,0.00551828903709084,1.51021221335996,1.57654392719269,-0.560572167964514,8.56667211007359
1.2,5.97600960362892,249.554343605462,250.880318242083,0.0574818490171805,1.48861431962134,1.49380731582642,-0.87206253182313,8.20039279662882
1.21,6.23748807981157,249.756832750427,250.880318242083,-0.0795921915486243,1.30914272338534,1.2830251455307,-0.078716999720304,8.02835741415428
1.22,0.215768067523197,249.766771024245,250.880318242083,0.0328777463955939,1.38145671004525,1.35482406616211,-0.74011218973914,8.02591208535192
1.23,0.477247692036265,249.710121669696,250.880318242083,0.0323195327142035,1.51130105594687,1.55426204204559,-0.712472608011264,8.43993086064046
1.24,0.738737385959844,249.619352065389,250.880318242083,0.0096410069350723,1.5284746874161,1.5613831281662,-0.564554500387773,8.37244416298481
1.25,1.00022763359698,249.813584826975,250.880318242083,-0.0560399547595435,1.34752610522933,1.24951934814453,-0.182764284789784,7.57231216490138
1.26,1.26168594600042,249.733868400096,250.880318242083,-0.0217020569353016,1.30572897537876,1.33344531059265,-0.386659135420373,8.34076602560365
1.27,1.52316089188962,249.683511926953,250.880318242083,-0.00548017575581183,1.54514419211756,1.60851383209229,-0.497984490911126,8.55573317893721
1.28,1.78466161916224,249.533298696636,250.880318242083,0.00547345140281773,1.42029403992403,1.47245860099792,-0.552037867254832,8.46406287870367
1.29,2.04615865686039,249.708121539902,250.880318242083,-0.0800672332808968,1.32136033496507,1.28184294700623,-0.0462042896610076,7.89057101403971
1.3,2.30762634128675,249.782214146546,250.880318242083,0.0346976263570566,1.41638187304058,1.43198239803314,-0.745850548251924,8.21701519876648
1.31,2.56909265297179,249.63343043818,250.880318242083,-0.0185706664840123,1.58572158177529,1.62875545024872,-0.417557118739989,8.39713457195177
1.32,2.83057348100279,249.559890134725,250.880318242083,0.0541721113383021,1.41136657908005,1.4870320558548,-0.888347386485367,8.60621786744818
1.33,3.09205888584541,249.812033092668,250.880318242083,-0.0458991657106274,1.33934441619868,1.28702199459076,-0.288513826031432,7.83667226725593
1.34,3.35353074440216,249.768089968781,250.880318242083,0.0470231279790357,1.40553693920066,1.39097905158997,-0.852251110105042,8.05413005581141
1.35,3.61501656378585,249.628584864587,250.880318242083,0.0747420979951501,1.57788639241384,1.65836918354034,-1.01983139070915,8.60903096308806
1.36,3.87651149424618,249.56010515981,250.880318242083,0.0151955859548553,1.42338762150363,1.47206687927246,-0.664901812955738,8.40603581309939
1.37,4.13799342954814,249.794581434666,250.880318242083,-0.0908793495355238,1.29827500947056,1.22661983966827,-0.0191494939824454,7.68950729791235
