t,theta,omega,r,i_d,i_q,i_q_ref,v_d,v_q
0,0,0,91.4253335767383,-2.28385859867474e-24,0,0,0,0
0.01,0.0578149450656342,89.19928216556,91.4253335767383,0.0054862882553478,-1.66940649777127,-2.26353025436401,-0.100147839601336,-1.01994451285267
0.02,0.152966087369179,90.8996083206258,91.4253335767383,-0.0559655178388431,0.538469841602934,0.58612048625946,0.302359412127106,3.01120895616537
0.03,0.248216253879502,90.9092080371275,91.4253335767383,0.0153554828685383,0.470667066988516,0.474992483854294,-0.140898858930437,2.78959208743569
0.04,0.343458736119477,91.003526657157,91.4253335767383,0.0258163554287359,0.635443963125892,0.634521782398224,-0.23978047871256,2.77042882010351
0.05,0.438707450479743,90.9406279064566,91.4253335767383,-0.0738701290928965,0.512500344216466,0.550583779811859,0.395156294965381,3.0513223090618
0.06,0.533963915905137,91.0223649332171,91.4253335767383,0.0492146199745911,0.567117076231602,0.593968629837036,-0.336626873874559,2.99703616489361
0.07,0.629221239949217,90.9327815685712,91.4253335767383,0.00509641065026778,0.487308675618245,0.543464660644531,-0.0817918869172514,3.16770510892219
0.08,0.724475776046234,90.9527396522425,91.4253335767383,-0.046592051874338,0.520773473511762,0.521426618099213,0.223308187069345,2.86883320523338
0.09,0.819740087556716,91.022694888689,91.4253335767383,-0.0115233707855115,0.52566202073725,0.529389977455139,0.0495173152736615,2.87764576539942
0.1,0.915010638848083,90.9266525247833,91.4253335767383,0.0130843576357091,0.479625821735641,0.525565028190613,-0.0935717580931348,3.12214520352194
0.11,1.01026885068602,90.9460723415474,91.4253335767383,-0.064390365122498,0.53308623483648,0.611293017864227,0.346488066508235,3.34514551940107
0.12,1.10552047485533,90.9896726495352,91.4253335767383,-0.0428430539301123,0.552940055512669,0.553652882575989,0.209784730025842,2.87579214280937
0.13,1.20078701399445,91.0111320908507,91.4253335767383,0.0621141498912673,0.646830146058449,0.656781017780304,-0.446008757811265,2.93612787738894
0.14,1.29604219410042,90.9344861411417,91.4253335767383,-0.0580501584937125,0.532950581087064,0.594364523887634,0.264962520423941,3.26964746553495
0.15,1.39129455736042,91.0223596079591,91.4253335767383,-0.0298089244120527,0.57949645144693,0.580106317996979,0.14153151315797,2.8976824802198
0.16,1.48656831260697,90.970062770836,91.4253335767383,-0.0994185748739708,0.611495292302455,0.585032224655151,0.533278449557852,2.73450771232102
0.17,1.58183352205152,90.9979363658595,91.4253335767383,-0.0567405695457856,0.525725094486395,0.580100655555725,0.290657901494616,3.22352578586062
0.18,1.67708538447649,90.9761123577752,91.4253335767383,-0.105938904891839,0.542614538118163,0.543745040893555,0.635544711521707,2.90308313641768
0.19,1.77236085534002,91.0085862292852,91.4253335767383,0.109237216404277,0.594853675090158,0.586260318756104,-0.628026647587727,2.84999267053229
0.2,1.86762249063332,90.9723537847729,91.4253335767383,0.0662884974922726,0.470762659439802,0.525718212127686,-0.435854780212707,3.22498291937313
0.21,1.96287886429934,90.9633196977697,91.4253335767383,-0.0305404279236206,0.516673699065918,0.51097446680069,0.191689877451397,2.86814063865475
0.22,2.05815268822045,90.9704970227228,91.4253335767383,0.100167094147978,0.575030523325315,0.587940096855164,-0.623335552476205,2.97957553787888
0.23,2.1534062144799,90.9110142053029,91.4253335767383,0.0322104677415427,0.455699022764331,0.53470367193222,-0.271501175687378,3.37645520226233
0.24,2.24866704782363,91.0104524389746,91.4253335767383,-0.017666492352234,0.589757063776988,0.603404104709625,0.0504636579683001,3.00122091248977
0.25,2.34394189897004,91.0183178668551,91.4253335767383,0.0439177628705734,0.558926042795927,0.568764567375183,-0.329423472152072,2.97013989105149
0.26,2.43920186188228,90.9880556651651,91.4253335767383,0.00329544888665599,0.56403394724224,0.572132289409637,-0.0930510245738855,2.93847717724459
0.27,2.53447477991848,90.9584445554572,91.4253335767383,0.00441385382843701,0.549998363223997,0.56012099981308,-0.0694362085617838,2.95756928227713
0.28,2.62973670315235,90.9664672794483,91.4253335767383,0.00918818873330157,0.520414349412042,0.548380672931671,-0.109895535047162,3.06589515387113
0.29,2.72500954858702,90.9536285259872,91.4253335767383,0.0106177975396969,0.547532512802984,0.544149219989777,-0.152549034461487,2.84287055841165
0.3,2.82026910067499,90.981782810308,91.4253335767383,-0.016665128031997,0.684433976713834,0.654639482498169,0.0287986675580959,2.71639574442601
0.31,2.91554179107854,91.021895829098,91.4253335767383,-0.00717492815229854,0.48341025098733,0.569809257984161,0.0212038921063348,3.38999531807742
0.32,3.01080122094702,90.9392399397886,91.4253335767383,0.0593463099042966,0.549378207891423,0.593230724334717,-0.398351211731472,3.13472222821468
0.33,3.1060614871602,90.9862575120242,91.4253335767383,-0.0202131752528631,0.515052210203078,0.49968358874321,0.0811780613518252,2.8079045623167
0.34,3.20131789149169,91.0819333554054,91.4253335767383,-0.0437147083196356,0.625654959764077,0.623802661895752,0.228562054086291,2.87578811752949
0.35,3.29659880671552,90.9461535864064,91.4253335767383,0.0861657134018533,0.544245504173999,0.562086045742035,-0.60318183733799,2.97413161848895
0.36,3.39185706151366,90.9669827206807,91.4253335767383,-0.0454269537260674,0.545044173598471,0.590656518936157,0.182035895790091,3.16724941286887
0.37,3.48712833725093,90.9917159949763,91.4253335767383,-0.0301004727073863,0.569473848984895,0.590309321880341,0.12089534470545,2.9800838544929
0.38,3.58239388201639,90.9501937301261,91.4253335767383,-0.0152777701842969,0.589766181961785,0.544581592082977,0.0512767611722962,2.60069195802151
0.39,3.67765165153861,91.0500355041534,91.4253335767383,-0.061057596190557,0.544501779693721,0.595452725887299,0.272041203636482,3.1925312613565
0.4,3.77291476486578,91.0156152186318,91.4253335767383,-0.0546009766874551,0.609365486527829,0.628144562244415,0.219869103227589,2.9824236256967
0.41,3.86819318730429,90.9724670677197,91.4253335767383,-0.0117131586567071,0.546059044781511,0.574377238750458,-0.0344031461415767,3.03900944952571
0.42,3.96345309491399,90.9854492942851,91.4253335767383,-0.00055537202929426,0.525470080456513,0.549809813499451,-0.123274210742735,3.01461466172874
0.43,4.05871068130304,91.0120231300939,91.4253335767383,-0.0123499724823778,0.592479269547215,0.6083704829216,-0.0260472804590768,2.96771303511107
0.44,4.15398288492539,91.023093425629,91.4253335767383,0.0900324254337735,0.600623922629874,0.604805171489716,-0.633516824892535,2.90324154266223
0.45,4.24923821644044,90.9897274001516,91.4253335767383,0.000742542037519479,0.502406559071401,0.595594227313995,-0.127216271881978,3.43192262025601
0.46,4.34450191067104,90.9430360587152,91.4253335767383,-0.0425815603122336,0.513871843517815,0.526188254356384,0.164522261289969,2.95333948640794
0.47,4.43977326343602,90.9602652662336,91.4253335767383,0.0768713511282786,0.520000994101237,0.516503036022186,-0.548057061133116,2.86354148924934
0.48,4.53502015196356,91.0177858393311,91.4253335767383,-0.00081264977573392,0.578967652729536,0.598787128925323,-0.127100753560371,3.00550372850085
0.49,4.63028720505981,90.9735642348191,91.4253335767383,-0.0108480365207276,0.581059642367091,0.627684950828552,-0.0619672936253655,3.18367180145872
0.5,4.7255629697235,91.0273803463492,91.4253335767383,0.00552137437120662,0.514204397088508,0.504644334316254,-0.121603700628316,2.83403038815172
0.51,4.82081503230296,90.9363694147127,91.4253335767383,0.0838218562415443,0.54321468886751,0.607727348804474,-0.621754255297396,3.27555590808644
0.52,4.91608222562061,90.982176557362,91.4253335767383,0.1008004158247,0.617276434098076,0.564043462276459,-0.73457642139781,2.59068632560664
0.53,5.01134717175029,91.0122110365674,91.4253335767383,-0.0909254316031416,0.537742306632284,0.580893218517303,0.404746466283366,3.16240701362794
0.54,5.10661259336435,90.96716638383,91.4253335767383,0.0558673905315993,0.546169013700055,0.551109075546265,-0.471303237041484,2.92193840968157
0.55,5.20188069939415,90.9858634239767,91.4253335767383,-0.0895784533716111,0.531094939616524,0.532774567604065,0.408959546466947,2.91160015552518
0.56,5.29713733057959,91.0311101851975,91.4253335767383,0.0130363420602242,0.561666565532672,0.592272400856018,-0.172928613296552,3.07714181461509
0.57,5.39240808196678,90.9701051406938,91.4253335767383,-0.0246872086944492,0.68622116490241,0.647310018539429,0.038542326056842,2.65552220134276
0.58,5.48767995428345,90.9759569894062,91.4253335767383,-0.0998267217428958,0.473195064940167,0.50802093744278,0.461857031520827,3.10619978175836
0.59,5.58293848262222,90.9897956778834,91.4253335767383,-0.0228986934310723,0.594581116610846,0.642946004867554,0.0263518087745763,3.16741183909766
0.6,5.6782144394649,90.9877411041306,91.4253335767383,0.0476430110823351,0.549134661501653,0.524162232875824,-0.409711607391709,2.72546124984279
0.61,5.77347269795476,90.9832634453627,91.4253335767383,-0.0263031014911368,0.502499389394213,0.562420725822449,0.013318087930712,3.25328282176087
0.62,5.8687282037395,91.0026806036439,91.4253335767383,-0.102612753593476,0.589038537643087,0.592289686203003,0.541236261266592,2.9042739022701
0.63,5.96400161626611,90.9438229273999,91.4253335767383,0.0304490858836009,0.497609479864717,0.501441061496735,-0.258805512241802,2.90977934045242
0.64,6.05925952995694,91.0378232219072,91.4253335767383,0.075238508658121,0.622625679279027,0.585870563983917,-0.577318097034297,2.66648707991003
0.65,6.15451632449695,91.0071313257612,91.4253335767383,0.00274955295583162,0.590982280694728,0.613097310066223,-0.0925716469889426,3.02303884315561
0.66,6.24980072694995,91.0299019694578,91.4253335767383,0.053031335495864,0.601128577259824,0.611349880695343,-0.378840632878874,2.93822982456827
0.67,0.0618683720421043,91.0381089855184,91.4253335767383,-0.0733256394169023,0.66636668814397,0.626878619194031,0.360967528256401,2.6378913181405
0.68,0.157124318511907,90.9732686416029,91.4253335767383,-0.00508210650932825,0.58445191805779,0.630348026752472,0.000364043654932415,3.17647989398421
0.69,0.25239752489373,91.0258616219952,91.4253335767383,0.0533705686823618,0.567443540681749,0.569918751716614,-0.34845499191061,2.91463122171405
0.7,0.34766098301461,91.005315710043,91.4253335767383,0.037520887627105,0.586857482727589,0.570373296737671,-0.277334809372539,2.77503262984012
0.71,0.442920899285862,90.9188156876993,91.4253335767383,-0.00830424162925,0.532981979659565,0.55279529094696,-0.000117741768215524,3.01595167198297
0.72,0.538193718139131,90.9247419401231,91.4253335767383,0.0219360334029322,0.501739158914819,0.506119072437286,-0.155269182968521,2.91261089499877
0.73,0.633450472303238,90.9791319856539,91.4253335767383,0.102723180151109,0.541921815365361,0.558311343193054,-0.680044981706606,2.97555346256566
0.74,0.728723758062539,90.9657485119315,91.4253335767383,-0.00994141538773669,0.517591631809572,0.548163115978241,0.00710869752536503,3.07346314692729
0.75,0.823985358443986,90.9921509997944,91.4253335767383,-0.0440703454727431,0.55543374850236,0.564143478870392,0.209768602833689,2.93877591360239
0.76,0.919256772283635,91.006415188891,91.4253335767383,0.0491198806783673,0.584198710015672,0.612473964691162,-0.377214606377227,3.03605624260638
0.77,1.01452055032212,90.910113328646,91.4253335767383,-0.110077039852741,0.474763449187214,0.527429282665253,0.599445519601918,3.20988586956155
0.78,1.10977714233667,90.9666028028861,91.4253335767383,0.0320964532380197,0.444637231640877,0.533236026763916,-0.2152714270926,3.41815745686474
0.79,1.20504106107223,90.9515503919253,91.4253335767383,0.0134590648776515,0.56977559859442,0.608903229236603,-0.12339704684233,3.12319085216704
0.8,1.30030693700867,90.9766447710988,91.4253335767383,0.0244211044594866,0.683060902180858,0.643525838851929,-0.222537054131671,2.66521426989557
0.81,1.3955660149572,91.0076575052563,91.4253335767383,0.000830505524800296,0.518586505961603,0.498636245727539,-0.0378405367795515,2.76737037009139
0.82,1.49083791170238,90.9182637048822,91.4253335767383,0.034670099319921,0.494910156192071,0.503934741020203,-0.252034758798025,2.94422783394385
0.83,1.58608911215856,90.9788947431738,91.4253335767383,-0.00561100989142246,0.545905149952129,0.559108018875122,-0.0401403309685893,2.99646438545018
0.84,1.68134612669825,91.0239108973043,91.4253335767383,-0.0449121119533705,0.607188810484149,0.613671481609344,0.221863864492812,2.94645710533619
0.85,1.77662232652746,91.005304041388,91.4253335767383,0.0282688165374999,0.58351728729744,0.606831610202789,-0.236920194000282,3.05077013062994
0.86,1.87188419617657,91.0521555616726,91.4253335767383,0.00497054050542245,0.553214496894839,0.582704603672028,-0.134749791047742,3.08378956421723
0.87,1.96714271266356,90.9571443294098,91.4253335767383,0.0517062909240563,0.593863079990481,0.553135097026825,-0.369043893871902,2.66022687992715
0.88,2.06242413088572,91.0497736659299,91.4253335767383,0.107909371402426,0.584280620273635,0.554537951946259,-0.726252587695555,2.71638413018577
0.89,2.15767751560423,91.0422279914895,91.4253335767383,-0.0642411140444489,0.549464291084432,0.595370948314667,0.277170225802099,3.16751761111636
0.9,2.25294392404751,90.9584081644844,91.4253335767383,0.00444715792982268,0.599043607768245,0.554713129997253,-0.104842077223069,2.62509587680673
0.91,2.34821242689538,90.9825722350071,91.4253335767383,0.0192721621881394,0.563087270489431,0.566030085086823,-0.182149816588652,2.91203796863313
0.92,2.44346860711077,90.9409881573619,91.4253335767383,0.0499048022641377,0.542018690733521,0.585070431232452,-0.39337971752763,3.13995447094319
0.93,2.53873105452203,90.9759820139935,91.4253335767383,-0.0553209507880294,0.579385782799701,0.619026899337769,0.262665926344386,3.13716335393733
0.94,2.63401398028571,90.9493321407026,91.4253335767383,0.017129378369372,0.466313804526145,0.521730780601501,-0.168439620193943,3.20566664794573
0.95,2.72926945377495,91.0029821845903,91.4253335767383,0.107511936907569,0.506576423496992,0.522670924663544,-0.730855254929799,2.96318670774063
0.96,2.82453816802416,90.9334371043774,91.4253335767383,-0.0759189510864281,0.540746875709956,0.575585782527924,0.405783270582837,3.08807590526479
0.97,2.9198040466031,91.0178389895461,91.4253335767383,0.0209072078443986,0.517954959814091,0.519594132900238,-0.182187473479805,2.88077349177955
0.98,3.01507083713274,90.9745111780087,91.4253335767383,0.0651340128529734,0.549949636110915,0.565327525138855,-0.46105116803,2.94788680787336
0.99,3.11033397460368,90.9156365743315,91.4253335767383,-0.121068882181818,0.522282527285255,0.602355182170868,0.63748966904763,3.36196703830628
1,3.20558878059235,90.9732799365105,91.4253335767383,0.016879562785638,0.493309740627301,0.580362319946289,-0.181510548866872,3.39733679846608
1.01,3.30085101019661,90.9597162986933,91.4253335767383,-0.0012724838396635,0.571351654049933,0.60316276550293,-0.0777602229399342,3.07306956139419
1.02,3.39611416072457,91.001457107657,91.4253335767383,-0.0563737269874498,0.556291692175029,0.591411232948303,0.228166893982989,3.11452043905651
1.03,3.49137769566458,90.995871839418,91.4253335767383,-0.00557060869976622,0.576111508191909,0.585519909858704,-0.0346126773468075,2.93223005525781
1.04,3.58664860410218,90.9916135945016,91.4253335767383,-0.0115221365324454,0.560236772317314,0.565536737442017,-0.0433933491706161,2.90488718666611
1.05,3.68190927938823,91.0356116637072,91.4253335767383,-0.0444432727921678,0.552698634788426,0.601322412490845,0.112167994376688,3.18145574892432
1.06,3.77716907412943,90.9732701600354,91.4253335767383,0.0310303153962796,0.517214133041569,0.592427670955658,-0.291044025797031,3.32492576934449
1.07,3.87244145536586,90.9523819301942,91.4253335767383,0.0196131307583496,0.545001270009715,0.580190479755402,-0.247005395581917,3.08746960875124
1.08,3.96769059828008,91.0033437584469,91.4253335767383,-0.0343136240552012,0.509386362761643,0.555453777313232,0.0720825000433732,3.17078535873479
1.09,4.06294782732807,90.9592377510955,91.4253335767383,-0.0198289864751784,0.558878442008915,0.590132832527161,0.0508827866336017,3.08035976317727
1.1,4.15822822710391,91.0275761535852,91.4253335767383,0.110193605544999,0.583382734325779,0.572430610656738,-0.723196123128998,2.82351080366183
1.11,4.25348359844803,91.0559113577158,91.4253335767383,0.00724058558707012,0.582809506231142,0.620975732803345,-0.143827409515143,3.11397455251488
1.12,4.34875300614422,90.9854540454272,91.4253335767383,-0.0344536436315269,0.556080032470155,0.538911938667297,0.159249788573335,2.77623318665982
1.13,4.44402231313092,91.0253007648452,91.4253335767383,0.0319255081455397,0.585550347830448,0.589907169342041,-0.223954880485682,2.91233226532323
1.14,4.53928410901715,90.9494705943742,91.4253335767383,0.0513027613569876,0.518124867167836,0.583586812019348,-0.362713656763624,3.2633880185488
1.15,4.6345432089487,91.0052917274312,91.4253335767383,-0.0112279119632794,0.606451402700188,0.608250379562378,0.0545058466006584,2.90210027484427
1.16,4.72981248107432,91.0380193780744,91.4253335767383,-0.00904916057989494,0.541072837182989,0.535829544067383,0.0449522566078828,2.860661135631
1.17,4.82508014415794,90.9732442251725,91.4253335767383,0.0366256202314759,0.557656229098152,0.574291229248047,-0.276919835567095,2.95916363208773
1.18,4.9203444963647,90.9598371827052,91.4253335767383,-0.0410967399495841,0.536556640868409,0.529850780963898,0.180699417998456,2.84421818938446
1.19,5.01561153168571,90.9529694413178,91.4253335767383,0.0278235672267271,0.514197598247046,0.552696347236633,-0.211430947563091,3.10136354499832
1.2,5.11088213828893,90.9199715919022,91.4253335767383,0.0374421046474006,0.498352092800988,0.531697034835815,-0.263395372786364,3.05001988324021
1.21,5.20613913084659,90.9075545973792,91.4253335767383,-0.0960249710647337,0.502887128599203,0.538440942764282,0.527730090743457,3.10171108299856
1.22,5.30140490078908,91.0109820971719,91.4253335767383,-0.0138527422055125,0.495551404123563,0.573978185653687,0.0941441783820864,3.34059489740341
1.23,5.39667365072044,90.9741820312982,91.4253335767383,0.0955767564901664,0.545730404258644,0.54152923822403,-0.592615332334839,2.83817156220807
1.24,5.49193611425183,90.9866500839333,91.4253335767383,-0.000517657535895333,0.572880607490835,0.604087054729462,-0.0477931731452526,3.07207286622476
1.25,5.58720470992739,90.9508453528256,91.4253335767383,0.0220926543308072,0.528983335679622,0.529114365577698,-0.195584847997198,2.85643285660583
1.26,5.68248866195511,90.9879353541981,91.4253335767383,0.00397581761686935,0.560630717113804,0.569777846336365,-0.0994462789822139,2.89049331891135
1.27,5.77774432460518,90.9683061115903,91.4253335767383,-0.0386219530987804,0.516926151880542,0.563773691654205,0.129465412954552,3.13943025660179
1.28,5.87300067895523,91.0230929407184,91.4253335767383,-0.0424635956133781,0.606289334599402,0.622989237308502,0.197607161555808,2.9494864078315
1.29,5.96827687745021,90.9236966165629,91.4253335767383,0.0374496048595215,0.495566018320496,0.503448963165283,-0.298499643908152,2.89966497990765
1.3,6.06352468057894,91.0738232614872,91.4253335767383,0.0515113619010324,0.534378116157867,0.597894012928009,-0.428654765452444,3.2571421943276
1.31,6.15878451693945,90.9273525629619,91.4253335767383,-0.0131653782324075,0.488607380426305,0.531367421150208,-0.0197452680271144,3.12584064321342
1.32,6.25405668218954,91.019729168681,91.4253335767383,0.0887992452699787,0.604225349008201,0.623712122440338,-0.628994832181233,2.99243439576704
1.33,0.0661282060526567,90.9679407252435,91.4253335767383,-0.0329261599006926,0.501635978784222,0.568714141845703,0.106884467920557,3.27247389313773
1.34,0.16139309380238,90.9439782480595,91.4253335767383,-0.0416966693045666,0.522602232485572,0.550921618938446,0.184196836896816,3.04246272832205
1.35,0.256655627368771,90.9706440171285,91.4253335767383,0.0187078293365839,0.554525964540207,0.584900617599487,-0.197599208892787,3.07343908508221
