t,theta,omega,r,i_d,i_q,i_q_ref,v_d,v_q
0,0,0,216.790360422768,-2.31117934961012e-24,0,0,0,0
0.01,0.0633596440916817,124.247048596521,216.790360422768,0.25342770107571,7.68703107406723,10,-1.63769764914424,17.5549217399564
0.02,0.255227488159979,213.133585174563,216.790360422768,-0.0734815177924101,0.0981701402068049,0.00151522550731897,0.0657816891132625,5.30578963761016
0.03,0.480950473963285,215.655659415272,216.790360422768,0.111111898463435,1.43849890630655,1.52314352989197,-1.04655375748427,6.65600739838989
0.04,0.706828517333285,215.623032160548,216.790360422768,0.0281101915365146,1.26466048795251,1.21717345714569,-0.571410100511239,5.89659593104868
0.05,0.932663477943737,215.715259340557,216.790360422768,0.0804708058521028,1.3425181181527,1.4151656627655,-0.883397874031281,6.66824078664556
0.06,1.15852416833663,215.725983598409,216.790360422768,-0.0823889022909451,1.3532538914461,1.32913160324097,0.103558554360349,6.14183238069557
0.07,1.38437064679658,215.622461932256,216.790360422768,0.027297616295031,1.46256998596592,1.56438565254211,-0.5458203331085,6.92876808279425
0.08,1.61027096173643,215.681486461417,216.790360422768,-0.0684280524431817,1.27558454216416,1.24843370914459,0.0289531351823616,6.15636813431681
0.09,1.83612621476959,215.773532187882,216.790360422768,0.111516344994875,1.34687668444693,1.3879359960556,-1.07112118327444,6.58029397524346
0.1,2.0620240311717,215.794253910518,216.790360422768,-0.0598144288457997,1.37548810948898,1.3098281621933,-0.0495642694101089,5.93748164114113
0.11,2.28787247227621,215.72093766517,216.790360422768,0.0438704890132606,1.47564802742539,1.52681279182434,-0.667942180593668,6.6706803789283
0.12,2.51377490318957,215.763223539478,216.790360422768,-0.0590008392772835,1.36698039665813,1.28646874427795,-0.0299454273772547,5.87090681116802
0.13,2.73964365935841,215.786027051781,216.790360422768,0.111728860842412,1.36037303127701,1.42475140094757,-1.0647047333644,6.7363391466984
0.14,2.96553284152719,215.705138576028,216.790360422768,0.0555888968505754,1.25300103819157,1.23519659042358,-0.736840261600363,6.25196712990392
0.15,3.19136839423963,215.790920421766,216.790360422768,0.0104192987614294,1.40540826623554,1.47097015380859,-0.469466502212797,6.80286267479628
0.16,3.41725706913339,215.699470148992,216.790360422768,0.0103017568830925,1.37132906946933,1.30343377590179,-0.470903520340662,6.01622370846072
0.17,3.64312567191841,215.789883658323,216.790360422768,0.104409686485736,1.38388325322785,1.37489330768585,-1.04367862967282,6.36729906771234
0.18,3.86902680680484,215.553458532428,216.790360422768,-0.0912543345647021,1.32963915915973,1.35778212547302,0.136553606939538,6.57673452954154
0.19,4.09490410156263,215.778149638699,216.790360422768,-0.00976266637987544,1.31063502542938,1.35092389583588,-0.364870569685659,6.63501663803505
0.2,4.32079413731311,215.634576496655,216.790360422768,0.0297613310410154,1.36802232571831,1.3635094165802,-0.590742456691841,6.36782200302053
0.21,4.54667298946973,215.725272876917,216.790360422768,0.0438933396543935,1.26264511975386,1.35159254074097,-0.696088237232992,6.91139745614108
0.22,4.77254234176696,215.534934950415,216.790360422768,-0.0306049184875024,1.40549236280602,1.44638025760651,-0.242756551899785,6.6592483444857
0.23,4.99840888069718,215.761450695402,216.790360422768,0.045086898884499,1.17716936584898,1.26023554801941,-0.690805326256832,6.92189566603827
0.24,5.22431735350276,215.71461022994,216.790360422768,-0.0343835542644125,1.38068848001986,1.28901314735413,-0.200323187250859,5.83801122255508
0.25,5.4502012863891,215.75963116633,216.790360422768,0.0695241160575411,1.20555579537821,1.2552809715271,-0.85818514872966,6.67023509317175
0.26,5.67607685657505,215.588511969297,216.790360422768,-0.0369991772392501,1.35130246351905,1.34171295166016,-0.194961461047869,6.33467761252531
0.27,5.90193438053379,215.736320833076,216.790360422768,0.0338917265657342,1.16305238319264,1.23442828655243,-0.632521958699476,6.85278907282698
0.28,6.12781751358275,215.654216529032,216.790360422768,0.00938235958913514,1.39249448040443,1.37239468097687,-0.480893725925459,6.30949078162075
0.29,0.0705374366902767,215.763639417011,216.790360422768,-0.0162413058369451,1.25220352651251,1.30011320114136,-0.340942101941089,6.66790482929844
0.3,0.296417865211283,215.627332398849,216.790360422768,0.00773876498950909,1.38231497042512,1.35946822166443,-0.461804251918122,6.24705705336781
0.31,0.522284134360958,215.832530457206,216.790360422768,0.0332259900243602,1.16124499969755,1.22226095199585,-0.629874929848899,6.77668590315565
0.32,0.748158090343117,215.568603181021,216.790360422768,0.0263757353993527,1.39274923713434,1.45900535583496,-0.564611660649593,6.81607152481321
0.33,0.974021250945981,215.78894931375,216.790360422768,-0.0180863634406991,1.17833825790769,1.23690855503082,-0.323476262617399,6.80364424644495
0.34,1.1999003402001,215.56749034243,216.790360422768,0.0285519737044752,1.39175883330122,1.44298529624939,-0.581524349038156,6.76138740556101
0.35,1.42580818123646,215.791996929389,216.790360422768,0.0222222119561092,1.18595362829872,1.22876989841461,-0.551145851189202,6.67084290333371
0.36,1.651679371018,215.641108464691,216.790360422768,0.0930148889684985,1.43447826623258,1.48513889312744,-0.939597975225987,6.72482172681066
0.37,1.87757234101287,215.802968932737,216.790360422768,-0.0363780134441909,1.22983956813665,1.28302788734436,-0.166595050781107,6.72726044793552
0.38,2.10345021743545,215.539423311765,216.790360422768,0.00112640080475301,1.39438207251059,1.46882510185242,-0.389358668892122,6.85070368292682
0.39,2.32932012196289,215.773779484419,216.790360422768,-0.090704181435311,1.22377753395588,1.21213126182556,0.133835317859294,6.36357212786963
0.4,2.55520361867822,215.707657002745,216.790360422768,0.091544028379337,1.40846349650688,1.32923090457916,-0.941678477467744,5.93944681845141
0.41,2.78108766899447,215.828773199574,216.790360422768,-0.0713074309612785,1.35208648264492,1.37374889850616,0.0201410140073523,6.55287936040167
0.42,3.00698267828482,215.669879050805,216.790360422768,0.031220963785653,1.41644953153563,1.38095963001251,-0.568865614563557,6.16828020507072
0.43,3.23286503085659,215.750177377812,216.790360422768,-0.0234521962515345,1.22503546159958,1.27866554260254,-0.254689491970224,6.71730643179635
0.44,3.45872689304835,215.610152828412,216.790360422768,0.0249706397840027,1.42291810766755,1.47058284282684,-0.551264751020359,6.69594961295708
0.45,3.68460990174135,215.724116309214,216.790360422768,-0.111389574767877,1.17967208849012,1.23949790000916,0.260557414691517,6.78708314031739
0.46,3.9104560291525,215.68787399885,216.790360422768,-0.0171157624461574,1.47640240146322,1.52292156219482,-0.307975201120524,6.74422100789869
0.47,4.13636202094856,215.748910384699,216.790360422768,-0.0311547564248116,1.28387801907914,1.24859011173248,-0.221895651213595,6.23477442070152
0.48,4.36223937059661,215.687718273648,216.790360422768,0.0594695194058368,1.44401235066431,1.45419263839722,-0.772523678815249,6.48804690375543
0.49,4.58814710837833,215.761431302956,216.790360422768,-0.0675468624347166,1.23635574221389,1.273512840271,-0.00480018753579725,6.6314389794593
0.5,4.81400677106589,215.725003052164,216.790360422768,0.0386551258301417,1.45533429058281,1.44767999649048,-0.626261141045797,6.37011262413141
0.51,5.03993497822672,215.72972941391,216.790360422768,-0.0523749744051784,1.19679311852419,1.20329332351685,-0.0832003041809161,6.40311175526779
0.52,5.26577250227136,215.622787549387,216.790360422768,0.127974307985068,1.42126066439104,1.494304895401,-1.18145969697588,6.84409279113634
0.53,5.49166621639532,215.689050298739,216.790360422768,-0.0488456977181764,1.22977069820598,1.15667331218719,-0.131142797544885,5.97413107219353
0.54,5.71752435901439,215.740281227621,216.790360422768,0.00514940853137036,1.46953604974187,1.44820427894592,-0.452759995901025,6.29650773812025
0.55,5.94343076973453,215.737136585816,216.790360422768,0.0199654711080879,1.22269548377726,1.18803238868713,-0.551085306312051,6.20957307606089
0.56,6.16930998678678,215.675643035743,216.790360422768,0.102259511539195,1.41803269453086,1.41208517551422,-1.04751962990567,6.35929613618829
0.57,0.112042480893948,215.687437640714,216.790360422768,-0.1185466079032,1.19822348160863,1.22652745246887,0.268491593730687,6.52702151428963
0.58,0.337889945529188,215.74007855658,216.790360422768,0.0303205681660007,1.46552497084877,1.4537193775177,-0.620947546564266,6.31045487692494
0.59,0.56377320907292,215.68351135986,216.790360422768,-0.0794480577979082,1.27505105428772,1.23957180976868,0.0338087851413084,6.19463271722853
0.6,0.789645372483482,215.740990658472,216.790360422768,-0.0351707742631087,1.35950081766697,1.34440898895264,-0.210665600943209,6.30635748214029
0.61,1.01553123541701,215.74478163049,216.790360422768,-0.0349771210772779,1.35805625875633,1.27068245410919,-0.186800001331478,5.89794714678597
0.62,1.24140600620784,215.789123457179,216.790360422768,0.0643132448608476,1.41970628946491,1.39674758911133,-0.780794463791652,6.26834784849795
0.63,1.4672867175859,215.682038460531,216.790360422768,-0.0373366609879252,1.37274342795102,1.38476288318634,-0.170694908635355,6.50340930322301
0.64,1.69314832991824,215.827395647544,216.790360422768,-0.0238029350510528,1.41461315828917,1.43063604831696,-0.252634661475043,6.53618042086385
0.65,1.91903077135798,215.720969350599,216.790360422768,-0.0189032796824199,1.37880479414551,1.32983243465424,-0.277116673224311,6.17196748875486
0.66,2.14491982858746,215.809690587939,216.790360422768,0.0833670444394508,1.34438076808264,1.38092195987701,-0.884798832634078,6.64745338687903
0.67,2.37080313144794,215.60028902706,216.790360422768,0.00885715868658943,1.35045755819015,1.35181939601898,-0.43722535907425,6.45532476717566
0.68,2.59665353550549,215.862935496923,216.790360422768,0.0348139436279198,1.40901962103236,1.44450712203979,-0.597679671450315,6.69167857342734
0.69,2.82255262568201,215.633291394403,216.790360422768,0.0126419691740534,1.33484061469454,1.23726975917816,-0.435592989276174,5.88228612687604
0.7,3.04844034592896,215.742524744685,216.790360422768,0.0728396295756595,1.2047205163117,1.28531050682068,-0.811364862069327,6.92075376779995
0.71,3.27433768079444,215.683988379321,216.790360422768,-0.0275011403670589,1.36938727775485,1.30634212493896,-0.195275456520713,6.05538102121617
0.72,3.50022980126279,215.780933154867,216.790360422768,0.036564459628593,1.29650088002146,1.35632514953613,-0.58891167456113,6.75666999414763
0.73,3.72611528441179,215.629784046681,216.790360422768,0.0320743879517364,1.37621445395811,1.3559707403183,-0.561691272196642,6.28522677623234
0.74,3.95199371139726,215.738103844485,216.790360422768,0.0371692717544482,1.1776145614226,1.26765549182892,-0.621670250109238,6.9378497311824
0.75,4.17787060468253,215.567690650671,216.790360422768,0.0154288875300933,1.34588403983012,1.34552848339081,-0.488056442855257,6.4167349089519
0.76,4.40373975164868,215.83019749321,216.790360422768,0.0729343482245863,1.24944040739906,1.3131742477417,-0.840345085977166,6.82021676019016
0.77,4.62964828193041,215.685751118861,216.790360422768,-0.030680935017722,1.39149063505719,1.33833837509155,-0.200345402501403,6.08089183662792
0.78,4.85552175810807,215.726042960335,216.790360422768,0.0541753182838008,1.19849263268259,1.25009095668793,-0.722316228379564,6.70974242142365
0.79,5.08137842236363,215.551720586129,216.790360422768,0.00269244348743347,1.38387743428095,1.47391796112061,-0.402741337451259,6.98650834663465
0.8,5.30725623475806,215.74982703244,216.790360422768,0.0690290695599838,1.18880652037517,1.20216119289398,-0.817963546236245,6.5272874706047
0.81,5.53313267045463,215.582999507215,216.790360422768,0.0160228690926738,1.39187569369766,1.45360708236694,-0.493321038370899,6.82628459318648
0.82,5.75899720195505,215.794127483503,216.790360422768,-0.00615165105391569,1.3235447562256,1.35004854202271,-0.384279904606338,6.64369612125809
0.83,5.98486880216772,215.685172951311,216.790360422768,0.0199050034169296,1.40420997164454,1.3528106212616,-0.517482684304411,6.19486580366156
0.84,6.21075529272476,215.713276369027,216.790360422768,0.00332699592750751,1.0933806499313,1.14144051074982,-0.431394111514997,6.78396155233419
0.85,0.153435793759943,215.581989054155,216.790360422768,0.048632471556712,1.43076675776146,1.5408730506897,-0.681643763013749,7.17271303559305
0.86,0.379349327959758,215.818050479174,216.790360422768,-0.00945930583006305,1.31158955433466,1.28318524360657,-0.337241987406227,6.29314393210512
0.87,0.605258503918236,215.663475016586,216.790360422768,-0.0061976800185386,1.40683569102682,1.36803615093231,-0.355018730259374,6.1786167017801
0.88,0.831133352213456,215.73255095303,216.790360422768,-0.0111964355741667,1.11169327547882,1.1678900718689,-0.355769877400613,6.76912102413333
0.89,1.05698903237804,215.724956079322,216.790360422768,0.0428617315009729,1.41106288547547,1.30712127685547,-0.656341440359149,5.83955059245026
0.9,1.28287901070213,215.777869176774,216.790360422768,-0.0998165090757361,1.11672255614258,1.18723499774933,0.190804736035179,6.88778070362732
0.91,1.50875788029638,215.624023108386,216.790360422768,0.000712117487634445,1.41433792982701,1.42727649211884,-0.396568225483893,6.52701764141614
0.92,1.73465674799304,215.793616741026,216.790360422768,-0.0248549735478104,1.25206364030363,1.30154120922089,-0.23941183176576,6.73076471601748
0.93,1.96053015130233,215.656378501766,216.790360422768,0.0384928649759934,1.41334989297373,1.38587307929993,-0.625433866389218,6.26356995100348
0.94,2.18643670508641,215.818352328688,216.790360422768,-0.0426923190552554,1.33622470620498,1.30216467380524,-0.145522424470626,6.19249854423498
0.95,2.41227980498466,215.66417296921,216.790360422768,0.00504636498555738,1.42704899892093,1.40874087810516,-0.437138417409362,6.33569087382331
0.96,2.63815770619583,215.794993339733,216.790360422768,-0.104040274553254,1.25649447101433,1.25457370281219,0.202896513347783,6.45903246553782
0.97,2.86403362216054,215.633667502321,216.790360422768,0.0734372037977874,1.40091703202228,1.3792839050293,-0.845386597157294,6.32716839009588
0.98,3.08993040728171,215.76897591875,216.790360422768,-0.0560616292874616,1.28077846314047,1.25874269008636,-0.0810697629108569,6.32463049074791
0.99,3.31581517356242,215.766473196205,216.790360422768,0.0196665067399022,1.47841191231102,1.46592593193054,-0.522473944307904,6.3517030209318
1,3.54169994540626,215.772583163375,216.790360422768,-0.0461653063078697,1.24115360822314,1.27454197406769,-0.136907917173652,6.64504126551813
1.01,3.76755645444776,215.715750495367,216.790360422768,0.102414388097418,1.44237189417056,1.43610763549805,-1.03662750251825,6.42393647691342
1.02,3.9934706207243,215.74518012844,216.790360422768,-0.0550298415062848,1.17268527524845,1.18458497524261,-0.0911906262951185,6.49992174388047
1.03,4.2193273689129,215.671304229989,216.790360422768,-0.01049531480899,1.45248399535042,1.46089494228363,-0.340928823135264,6.48868821962738
1.04,4.4452507177235,215.765940678627,216.790360422768,-0.037444585398439,1.34062325204283,1.28631246089935,-0.200920500912222,6.06709189435064
1.05,4.67112749702426,215.757737131749,216.790360422768,-0.00954574830231564,1.36104929370276,1.36023354530334,-0.367533018452236,6.36648766308677
1.06,4.89702887158159,215.677558084238,216.790360422768,-0.0286638687861421,1.28784686521683,1.26530134677887,-0.241326624041286,6.22979234605591
1.07,5.12290243378338,215.679128879142,216.790360422768,0.0728427373519623,1.29982645999468,1.32052373886108,-0.852946535438247,6.47298193395144
1.08,5.34877495109568,215.756254442829,216.790360422768,0.0402734607835948,1.27340481030422,1.26624119281769,-0.657110145304685,6.3462761576899
1.09,5.57465270236305,215.787001562969,216.790360422768,-0.0499904592215685,1.38932085538732,1.37672400474548,-0.114880148589067,6.2920967208111
1.1,5.80054609390752,215.693836737704,216.790360422768,-0.0505403679056556,1.28892942001988,1.25966060161591,-0.102223125719151,6.20533336092558
1.11,6.02640596382296,215.767016750587,216.790360422768,0.0501754512782121,1.36781013169273,1.41689050197601,-0.699066998842433,6.68178538750007
1.12,6.25228705247075,215.702254524764,216.790360422768,-0.0719720102127885,1.34963195134045,1.3033047914505,0.0416753195842967,6.13333122637927
1.13,0.194953762067033,215.7531254145,216.790360422768,0.0853385049226265,1.46899008237589,1.48720526695251,-0.903454678135327,6.54190157793528
1.14,0.42086550834372,215.797144663877,216.790360422768,-0.0195663173616961,1.38551692708188,1.302121758461,-0.268819172208456,5.9075312649201
1.15,0.646751838119819,215.765691152232,216.790360422768,0.100217042028148,1.40061447464514,1.40106475353241,-0.990485227471944,6.37692334752857
1.16,0.87264601990616,215.683386149346,216.790360422768,0.0132563226273098,1.34018385252561,1.27185153961182,-0.45919267485268,5.96222324792626
1.17,1.09850927863295,215.786259504513,216.790360422768,-0.0666193277174514,1.32285950913191,1.32454478740692,0.0239778951952421,6.38665273125191
1.18,1.324421571505,215.686837226301,216.790360422768,0.032258456883396,1.36775247448433,1.29155766963959,-0.577433347119019,5.89000839339799
1.19,1.55027953874728,215.754769326677,216.790360422768,0.0382337494076818,1.29299263266761,1.35974276065826,-0.634542507349764,6.76820338431351
1.2,1.77615305821391,215.579720840366,216.790360422768,-0.0684712774049563,1.33476325388829,1.32876574993134,0.0203309551667287,6.35763602203279
1.21,2.00202684132696,215.755090289959,216.790360422768,-0.0196154220329289,1.28760838972679,1.31395828723907,-0.282895571838727,6.54512772594738
1.22,2.22790864619386,215.567252969572,216.790360422768,-0.00253192848396205,1.33994920532492,1.3189560174942,-0.382500696541563,6.27790777700619
1.23,2.45378307871677,215.746172606802,216.790360422768,0.0342871891284432,1.28776616006783,1.34308159351349,-0.616990954034653,6.73044155390778
1.24,2.67966192934704,215.673190208468,216.790360422768,0.0227107474561191,1.38860743820316,1.35711252689362,-0.512658177468061,6.22678240577337
1.25,2.90552087877027,215.781477915902,216.790360422768,0.0672876743063766,1.24564600192017,1.31816387176514,-0.813715269701198,6.87986699877338
1.26,3.13141391146834,215.689444415739,216.790360422768,0.00669185044413276,1.3818557488992,1.32259690761566,-0.443027664306006,6.08248319771924
1.27,3.35729490548324,215.74884198364,216.790360422768,0.00571892057418302,1.14778308925368,1.1806697845459,-0.42821977551434,6.6257721746617
1.28,3.58319674732347,215.718211405664,216.790360422768,0.0217969077613547,1.39378227033194,1.29372704029083,-0.523313968737113,5.80526315175886
1.29,3.80907288130671,215.707158074922,216.790360422768,0.0469898695291032,1.19332656001748,1.23275995254517,-0.685497606512027,6.64694919406273
1.3,4.03495661239321,215.739911185629,216.790360422768,-0.0253370948207642,1.40045606768075,1.29507327079773,-0.238001579126094,5.78153755262483
1.31,4.26083754221117,215.769786753495,216.790360422768,-0.0499213393512147,1.22089402207266,1.20273816585541,-0.10392493941411,6.29983875341003
1.32,4.48672535314116,215.65727626024,216.790360422768,-0.00382482276981789,1.35728453331774,1.25597321987152,-0.344507067875822,5.79310315543609
1.33,4.71260256894003,215.804761521072,216.790360422768,-0.0151735619299778,1.16069530907859,1.1679515838623,-0.302668253225344,6.45182591191844
1.34,4.93847476255111,215.568492282743,216.790360422768,0.0489993933061653,1.38915186796741,1.44453239440918,-0.671470720477271,6.74861765201384
1.35,5.16434838372059,215.725549563077,216.790360422768,-0.020956905513076,1.09708304198713,1.15030550956726,-0.27879016429462,6.75750553345903
1.36,5.39021798744779,215.569159516438,216.790360422768,-0.0490682893225635,1.39704545908805,1.45190846920013,-0.103791792705305,6.78374907851483
1.37,5.61610416055987,215.80596302695,216.790360422768,-0.0142258940538535,1.16271176220444,1.17145717144012,-0.324318589590752,6.5130767758675
