t,theta,omega,r,i_d,i_q,i_q_ref,v_d,v_q
0,0,0,264.171377486559,-2.27371465603083e-24,0,0,0,0
0.01,0.0639504939198642,125.413563245205,264.171377486559,0.188780796701639,7.59542752993848,10,-1.22997752780955,18.1754526425493
0.02,0.261369891043964,249.181856659191,264.171377486559,0.208249994217029,7.79971874160214,10,-1.68455490153326,20.3326069938175
0.03,0.535935918969473,262.977184978755,264.171377486559,-0.0697880017354776,1.38612705040034,1.47009325027466,-0.131157660246007,7.91649877150554
0.04,0.811129398683671,262.922425126426,264.171377486559,0.113281331856997,1.53651013477876,1.59801208972931,-1.24729677048367,7.95457450236748
0.05,1.08632915287862,262.916085999099,264.171377486559,0.0356049664744681,1.61959997780576,1.72362732887268,-0.78717549060763,8.3886859236907
0.06,1.36154528181238,262.783647587373,264.171377486559,-0.0421219975483252,1.69951021039689,1.83756721019745,-0.326712735633117,8.74806182841749
0.07,1.63680611806172,262.721733210014,264.171377486559,0.0368006840686427,1.58322912154381,1.68507254123688,-0.824086111925032,8.61846946162656
0.08,1.91208942836699,262.905533014865,264.171377486559,-0.0102852963740868,1.43492077110038,1.34671974182129,-0.54411585524568,7.52549633460176
0.09,2.1873831049749,262.986835547995,264.171377486559,-0.000486633912626211,1.40641023937852,1.4388439655304,-0.62273622741484,8.26434444743442
0.1,2.46264491236039,263.067678279186,264.171377486559,0.0206272114254712,1.54213014525193,1.58744835853577,-0.761340655857894,8.39083194289829
0.11,2.7379132554755,262.926404520719,264.171377486559,-0.00357639957548844,1.62393623698821,1.68406677246094,-0.60913568095435,8.53025904441729
0.12,3.01319735980303,262.829963964625,264.171377486559,-0.0410532057909294,1.60898042487618,1.69134664535522,-0.393207353448897,8.70320700270692
0.13,3.28849118055136,262.850064252678,264.171377486559,-0.0326345610345947,1.68561280435838,1.7749570608139,-0.43418209096342,8.76959585535178
0.14,3.56380849595059,262.803385840106,264.171377486559,-0.0612244168085707,1.4068579636471,1.35887336730957,-0.256169888471217,7.93429046480609
0.15,3.8391022897495,263.076556784905,264.171377486559,0.0114327711991986,1.47637197236078,1.42647242546082,-0.697079417800299,7.93910560560745
0.16,4.11440109707908,263.080773988643,264.171377486559,-0.00332477756524707,1.53007577442637,1.52417457103729,-0.598494564323234,8.19579521492148
0.17,4.38966803837652,262.845329564029,264.171377486559,0.0737918545726528,1.56805480791839,1.67433714866638,-1.0520323691974,8.91410957097961
0.18,4.66494260807118,262.856191954155,264.171377486559,-0.026388423920998,1.66951237647958,1.71467864513397,-0.444354362614932,8.5976426837146
0.19,4.94023961112575,262.834378129708,264.171377486559,0.00712139826834295,1.73234874711757,1.78476178646088,-0.639996639967039,8.65794739285677
0.2,5.2155669292352,262.771790333807,264.171377486559,-0.0952503793500985,1.52864539159498,1.55537164211273,-0.0224575037040473,8.47736171633069
0.21,5.4908820420061,262.985015872932,264.171377486559,-0.0864056396024938,1.41537745765347,1.38697838783264,-0.0720346068069951,8.13688738365146
0.22,5.76618393637978,263.179403999008,264.171377486559,-0.00141075536784452,1.53522553748628,1.56902801990509,-0.592535085145151,8.49939007225829
0.23,6.04147538150549,263.018120264185,264.171377486559,0.0718983511022444,1.62503538018298,1.66316199302673,-1.03734082120957,8.52649513466705
0.24,0.0335849460098068,262.91119953879,264.171377486559,0.0786615720965954,1.59108990009028,1.66323792934418,-1.06892478849103,8.7410943269096
0.25,0.308901439387854,262.868165598518,264.171377486559,0.0794468312154641,1.69388296495586,1.7404797077179,-1.05550466593368,8.56759803463309
0.26,0.584229320362287,262.758808700292,264.171377486559,0.067051053399937,1.55400246853297,1.55600714683533,-0.979592548531026,8.26688098131293
0.27,0.859547032574,262.867798457973,264.171377486559,-0.018958759759073,1.42264272156474,1.40732872486115,-0.483662089355567,8.1514150319394
0.28,1.13483495256949,263.116985385014,264.171377486559,-0.0717321765131583,1.46810495253554,1.53438901901245,-0.187611595550195,8.6644315654947
0.29,1.41012875509026,262.973748801975,264.171377486559,0.0605467734554549,1.5136291253674,1.53060305118561,-0.977870575352198,8.36071422147258
0.3,1.68542088663195,262.820106254661,264.171377486559,0.0412532954267046,1.5808081726082,1.70820391178131,-0.849736873772857,9.03613874724921
0.31,1.96071630626232,262.85187512387,264.171377486559,-0.0604063592135134,1.71643983612965,1.77896451950073,-0.237851724028128,8.66345776937219
0.32,2.23603501347681,262.77319263102,264.171377486559,-0.0598313075859516,1.58585671812754,1.64711034297943,-0.251682518227881,8.64071791644551
0.33,2.51135693517166,262.878040917023,264.171377486559,-0.029142136894709,1.42637024184412,1.34531927108765,-0.431465391328609,7.76786130449451
0.34,2.78666519760529,263.078102527938,264.171377486559,-0.0102894129752579,1.46816671568827,1.45334184169769,-0.549149740686217,8.15001159904451
0.35,3.06194635903235,263.071090844343,264.171377486559,0.0361249093425887,1.5369898728832,1.58485078811646,-0.810323239603326,8.54804364965083
0.36,3.33722755586364,262.967322815553,264.171377486559,0.0397681317525674,1.61739163355144,1.64723324775696,-0.823397672187649,8.46590944606079
0.37,3.61253543605074,262.814235570545,264.171377486559,0.013343898692124,1.56438582220756,1.65510010719299,-0.683609837857983,8.8288758188266
0.38,3.88783719841687,262.843805330249,264.171377486559,0.0182964431181455,1.67340610377263,1.7431366443634,-0.703789157562738,8.71275877579199
0.39,4.16314689469256,262.725144807098,264.171377486559,0.0054248171089929,1.44876642398158,1.48610508441925,-0.623035532749223,8.51833987546424
0.4,4.43845067862251,262.949963627629,264.171377486559,-0.000205190664046062,1.44724328242654,1.43177843093872,-0.582188600254242,8.2025829706952
0.41,4.71374172060324,263.048369649478,264.171377486559,0.0182860076267741,1.48784599778485,1.43799698352814,-0.703042939145631,8.00395738516335
0.42,4.98903495714039,262.879606478923,264.171377486559,-0.000450440813911102,1.58851294515427,1.58764004707336,-0.590367894133036,8.2977053288679
0.43,5.26433346169703,262.889865924473,264.171377486559,0.0176400684746949,1.63603752318635,1.73118579387665,-0.687182420120341,8.88034963478609
0.44,5.53965684749117,262.790940423143,264.171377486559,0.0796487702662981,1.67295167546609,1.67582011222839,-1.05543183018407,8.29836852394228
0.45,5.81495701664809,262.686645639462,264.171377486559,-0.00113650688704547,1.46619172868107,1.53287768363953,-0.563154023162246,8.69279426427905
0.46,6.09026713608474,262.964866155446,264.171377486559,-0.0884674234978774,1.38344719365928,1.2791885137558,-0.0472020597782472,7.66049895933675
0.47,0.0823685980415814,263.035178234121,264.171377486559,-0.0142925026867037,1.44171052647295,1.47944021224976,-0.519823135554291,8.5269555571838
0.48,0.357661532499019,263.04868755329,264.171377486559,0.0713193526491632,1.62947317660757,1.65270507335663,-1.04018573099231,8.44176043946243
0.49,0.632963559106047,263.023981784804,264.171377486559,0.0159726730432309,1.64795091803015,1.66077530384064,-0.728602493121538,8.37852268798592
0.5,0.908264024521451,262.829397136016,264.171377486559,0.00411963854159425,1.80344799344478,1.83363366127014,-0.639565624270576,8.48947632313258
0.51,1.18356761176974,262.769551903675,264.171377486559,-0.0702134394518201,1.61518831297956,1.61061191558838,-0.171272137478708,8.29307843958769
0.52,1.45889083751401,262.831252270844,264.171377486559,-0.0722116371637936,1.40333440528492,1.40165948867798,-0.159677995674049,8.28523686119891
0.53,1.73419371030308,262.9768505382,264.171377486559,-0.0741981813626011,1.41978176726848,1.49547731876373,-0.160972318477241,8.74178928496271
0.54,2.00947467704155,263.042374071214,264.171377486559,-0.0162731341719222,1.56608219972899,1.54918801784515,-0.511451769225005,8.20396610957244
0.55,2.28477441401686,262.92178257838,264.171377486559,0.0687306088701064,1.60619713689475,1.69169473648071,-1.0258160705611,8.8192177933823
0.56,2.56007178714838,262.855212046673,264.171377486559,-0.0636086621299133,1.71100731110772,1.76970446109772,-0.224446992962013,8.67089920649953
0.57,2.83540035762111,262.730157399655,264.171377486559,-0.0705284418029266,1.54754406290929,1.57879567146301,-0.189807465387183,8.47246702632076
0.58,3.11070294569553,262.767290503215,264.171377486559,0.0457302673306236,1.43075077314035,1.47600603103638,-0.888658955607416,8.56637108098924
0.59,3.38601852115338,263.047390599448,264.171377486559,-0.0212632899269616,1.41944038065742,1.34805881977081,-0.485742842570776,7.84241308895596
0.6,3.66130341341603,263.135129608784,264.171377486559,0.0154440606926834,1.55514979173555,1.552081823349,-0.714290978434806,8.26660245462172
0.61,3.9366001441088,262.938806692593,264.171377486559,0.0497338815766659,1.61299159528532,1.68013548851013,-0.919097939544207,8.68219912117052
0.62,4.21189448324197,262.867618546992,264.171377486559,0.0396150670397053,1.72213206045075,1.79495549201965,-0.852144294087181,8.72776808605581
0.63,4.48719402827039,262.823911068271,264.171377486559,-0.00679427117445194,1.67296731322468,1.74733603000641,-0.564863314145865,8.75116212212282
0.64,4.76251102950508,262.70883517167,264.171377486559,-0.0299000882256875,1.4071465533316,1.44834518432617,-0.42403659403402,8.54000768122285
0.65,5.03781517290345,262.903059260025,264.171377486559,-0.0259983055287145,1.3550414512778,1.29905724525452,-0.451217177284577,7.95805668941621
0.66,5.31309107725342,263.033605519292,264.171377486559,0.0363182255432071,1.48399653808317,1.45683014392853,-0.822007136290537,8.16113156200969
0.67,5.58839289352357,262.960547414875,264.171377486559,0.0170684896820155,1.62786753618785,1.65236186981201,-0.714565898356297,8.46292816753733
0.68,5.86368123328102,262.904605341786,264.171377486559,0.047858914583348,1.59559577259536,1.6672523021698,-0.877834995611052,8.77715458098083
0.69,6.13899520895009,262.830619889593,264.171377486559,-0.0187026464592953,1.68224456924864,1.74313902854919,-0.490231001785506,8.6972194449809
0.7,0.131116109095917,262.808328032645,264.171377486559,-0.0808334497369837,1.58402807896914,1.60990738868713,-0.110699155376992,8.49516747437782
0.71,0.406427945331764,262.945773462662,264.171377486559,-0.0884162997282106,1.38348792695872,1.2721643447876,-0.061138970507459,7.66335324680275
0.72,0.681729499243385,263.042475480195,264.171377486559,-0.0174088094767024,1.43648275955446,1.44913280010223,-0.491941086897849,8.39950422512797
0.73,0.957016037646689,262.948412375634,264.171377486559,0.0680314338580923,1.59090438975592,1.65315556526184,-1.00119193373274,8.70902228643107
0.74,1.23232244099906,262.906615226829,264.171377486559,-0.00720781475410781,1.6106737470779,1.66626191139221,-0.547160485118367,8.65809464600162
0.75,1.50764106030109,262.874063510783,264.171377486559,0.00260326386775755,1.71844042036179,1.79847061634064,-0.60164094922747,8.78586941628913
0.76,1.78296456812137,262.77974930098,264.171377486559,0.0436271225136022,1.59432894765996,1.65742516517639,-0.834374697260065,8.65879207014096
0.77,2.05825793848161,262.871384015594,264.171377486559,-0.0290610689779611,1.4288400734893,1.40972054004669,-0.40523021979665,8.19194167480375
0.78,2.33356279444095,263.024973656457,264.171377486559,-0.0400838284132438,1.37130680834735,1.33071064949036,-0.34201600948525,8.05449564625804
0.79,2.60884601869352,263.034087900835,264.171377486559,0.0710919451567351,1.52601970524302,1.54523479938507,-1.02339780544725,8.42498054554467
0.8,2.88413863792304,262.948697527023,264.171377486559,0.00471464058380799,1.60774027464168,1.60504269599915,-0.643668440987377,8.30771646522936
0.81,3.15943917921685,262.879278795223,264.171377486559,-0.00984728113469915,1.71788660631328,1.76042175292969,-0.543366773839402,8.58311391499576
0.82,3.43476014232825,262.797015498741,264.171377486559,-0.00294863325352657,1.64445640475266,1.70184946060181,-0.594817716816426,8.65560831213411
0.83,3.71008891966735,262.807186883502,264.171377486559,0.0157317977109414,1.4219727102012,1.39294457435608,-0.710356783714083,8.10312786350221
0.84,3.98539727754543,263.041331703628,264.171377486559,-0.0368872272486873,1.44989785847041,1.41948771476746,-0.377324545528368,8.08524893621267
0.85,4.26068624413702,263.041002276193,264.171377486559,0.0257387913891845,1.49246546029584,1.53383362293243,-0.752813908849525,8.52291934394582
0.86,4.53596773632125,262.911029139689,264.171377486559,0.0833168356375085,1.59797696084382,1.67959249019623,-1.10403598196926,8.79135861973073
0.87,4.8112865784814,262.835488098028,264.171377486559,0.000961597762996425,1.60901038079995,1.69407618045807,-0.611363705805364,8.79133250725928
0.88,5.08658197886244,262.822463370983,264.171377486559,0.0151420675223146,1.65411628203366,1.7009494304657,-0.694051607314596,8.58454366535497
0.89,5.36189426002029,262.719393350675,264.171377486559,0.0282446899990916,1.41497473575451,1.43942379951477,-0.775080728399744,8.44599810806699
0.9,5.6371969999973,262.959627550341,264.171377486559,-0.0791065948973038,1.39009181633123,1.32003557682037,-0.116682224927713,7.88396148667014
0.91,5.91246540256782,263.080522279879,264.171377486559,0.0330340383364318,1.58319573305341,1.68674659729004,-0.786890926363783,8.96695252148953
0.92,6.18777070093888,262.99119258859,264.171377486559,0.0895538843367309,1.58964443782409,1.60236203670502,-1.12698018204238,8.40512239243039
0.93,0.179897275158538,262.878553254111,264.171377486559,0.0208521107733639,1.6680875267404,1.7044677734375,-0.698295985387842,8.52612482209912
0.94,0.455196963151252,262.828924452048,264.171377486559,0.116591334148077,1.78978861079006,1.82283329963684,-1.28719355016013,8.51758119439791
0.95,0.73052510617271,262.696456287772,264.171377486559,-0.0404369671578146,1.4651828206753,1.53854382038116,-0.340942910425008,8.72750317613489
0.96,1.0058359234939,262.898897144732,264.171377486559,-0.0656388027240303,1.38541913940795,1.3196097612381,-0.20816348162545,7.88499621487796
0.97,1.28112036636491,263.161425178344,264.171377486559,-0.0446491012863572,1.48743656155205,1.5481128692627,-0.325901380049559,8.66903011485659
0.98,1.55641282686964,262.907325927658,264.171377486559,0.0727078721592182,1.57918639363502,1.67219185829163,-1.02056225646068,8.85607987207467
0.99,1.83172081237587,262.905525702797,264.171377486559,0.0522772650239716,1.60265398942174,1.68602073192596,-0.907827799240264,8.78631346486021
1,2.10701793229654,262.904036067361,264.171377486559,0.012009867396213,1.73059695317188,1.8018571138382,-0.668556653257096,8.72631097437808
1.01,2.38233514921881,262.703686489201,264.171377486559,0.0432377066377576,1.48091872296035,1.53999245166779,-0.834826672243478,8.64201692689656
1.02,2.65764749735284,262.911162090056,264.171377486559,-0.00345410882095953,1.43291229285099,1.36364996433258,-0.567134104725181,7.86436123905091
1.03,2.93294236089565,262.937665702768,264.171377486559,-0.0642497448458454,1.41096208635642,1.48023164272308,-0.213151796778543,8.70413190249525
1.04,3.20822423968183,263.049604921969,264.171377486559,0.0344714874984025,1.54944158338821,1.56176435947418,-0.810719445984823,8.37885997796663
1.05,3.483532103485,262.991582126405,264.171377486559,0.0191483015314077,1.62759694581876,1.63767385482788,-0.709674673316164,8.34883423587651
1.06,3.75884067021702,262.88171664223,264.171377486559,0.0125677238320172,1.7299256734541,1.80531549453735,-0.671978138816329,8.73731294126291
1.07,4.03417081886256,262.767952671433,264.171377486559,-0.071353072706482,1.59013437148831,1.63527345657349,-0.184952902498307,8.52119839785764
1.08,4.30948720095515,262.864440986894,264.171377486559,-0.0644064168724635,1.42235796215224,1.36595666408539,-0.238818996678271,7.90164650902497
1.09,4.58480525569107,263.074384039786,264.171377486559,-0.0771933633850515,1.39974724236553,1.34965980052948,-0.142320893410142,7.91320870200132
1.1,4.86010049557297,263.053162563408,264.171377486559,0.0167132453938793,1.45620936511587,1.40479302406311,-0.699044885955883,7.90246924376687
1.11,5.13538207733479,263.013214251989,264.171377486559,0.050314093904957,1.617827142714,1.61272287368774,-0.89685387409445,8.20883459023101
1.12,5.41067433037041,262.865073058004,264.171377486559,0.06303960495343,1.71378200459972,1.79673719406128,-0.973349464084083,8.75689468432529
1.13,5.68597835884268,262.853582115893,264.171377486559,0.00221944169215305,1.77376456866524,1.84014987945557,-0.607604115582549,8.66098422243696
1.14,5.96130465022957,262.734922514165,264.171377486559,-0.0768454047674469,1.40522550607107,1.42801809310913,-0.137379752031161,8.37410478509582
1.15,6.23659647239239,262.927747633919,264.171377486559,-0.0422831365787842,1.36207921593664,1.28026568889618,-0.353564917011924,7.7676410404378
1.16,0.228691039271158,263.08224272566,264.171377486559,-0.0438258817766082,1.46929817780681,1.54528546333313,-0.354798374018366,8.74497330017158
1.17,0.503969030595254,262.900497960049,264.171377486559,-0.0142560065593821,1.64119579722683,1.74323356151581,-0.528735064821534,8.92688877439418
1.18,0.779276377549579,262.856748853981,264.171377486559,0.0750235475914597,1.58044299009555,1.68913269042969,-1.03824083740691,8.95920275439947
1.19,1.05457193602693,262.858538116447,264.171377486559,-0.0145335397817367,1.75297211630418,1.80029439926147,-0.493246892211422,8.60946479504387
1.2,1.32988587087154,262.698755547064,264.171377486559,-0.04072331423304,1.4182392942484,1.46505773067474,-0.347118357934914,8.60631050891182
1.21,1.60518585272285,262.992872213435,264.171377486559,-0.0137089472335999,1.44240850438009,1.35427379608154,-0.522208075908708,7.8050015808742
1.22,1.88047541044372,263.041803341418,264.171377486559,-0.0679881418104975,1.40078618208307,1.44201683998108,-0.212061364956756,8.59698006852591
1.23,2.15576918026481,263.001203575657,264.171377486559,0.127425356315553,1.57149932547178,1.56582498550415,-1.3836849654095,8.30897151039335
1.24,2.43107204707316,262.933569161797,264.171377486559,0.0107070727274597,1.60882187963631,1.64286363124847,-0.676312896953922,8.54229999499103
1.25,2.70638832855765,262.890047346312,264.171377486559,0.0277217490244997,1.71904246447906,1.77836966514587,-0.780042173924248,8.67902471708037
1.26,2.98170950312661,262.739663082429,264.171377486559,0.0387054558858285,1.52297111588827,1.60760498046875,-0.850240801687207,8.81105984182496
1.27,3.25703257622198,262.803028747773,264.171377486559,-0.0104034149034051,1.41342704336351,1.39018380641937,-0.536216550750322,8.14468522074633
1.28,3.53232403050087,263.047277232052,264.171377486559,-0.0816334106841949,1.42684837024299,1.40173196792603,-0.105019657595843,8.1447623425757
1.29,3.8076171988715,262.965677278344,264.171377486559,0.0128471764410048,1.46033648379168,1.41680300235748,-0.652492572803693,8.0345305932137
1.3,4.08289504310102,262.963462593966,264.171377486559,0.0550474739916145,1.62060861529739,1.68742322921753,-0.908865369322435,8.73291666222786
1.31,4.35820763606976,262.84084076413,264.171377486559,0.0355039296191353,1.75875172019276,1.81123113632202,-0.78743204303256,8.63248505291697
1.32,4.63353542468797,262.776100791328,264.171377486559,-0.0838670751768583,1.63487427341869,1.6913685798645,-0.0713298931634454,8.62545587954621
1.33,4.90884757024607,262.796330155468,264.171377486559,-0.0423720661451294,1.41369731026398,1.40520489215851,-0.328073221233366,8.22941348216621
1.34,5.18414684548603,262.992777056767,264.171377486559,-0.0846992853247831,1.39714180945709,1.40889406204224,-0.084574989436132,8.36017867647308
1.35,5.45941645962694,263.03767578888,264.171377486559,0.0363657897011495,1.54149703541425,1.67269420623779,-0.809225668130696,9.11696204379747
1.36,5.73470396169741,262.933663420907,264.171377486559,0.0383351738161533,1.60636343225893,1.65660083293915,-0.825170874984463,8.64515527618032
1.37,6.01003250188928,262.818604883021,264.171377486559,-0.00509241958794271,1.621458280842,1.73016154766083,-0.54776664942313,8.95099997478118
