t,theta,omega,r,i_d,i_q,i_q_ref,v_d,v_q
0,0,0,101.169170687677,-2.26006818999568e-24,0,0,0,0
0.01,0.0623292088241944,99.625730640396,101.169170687677,-0.0491915337363099,-2.43232032513266,-3.39116549491882,0.230947849412713,-3.1601930509515
0.02,0.167620068493816,100.643455987275,101.169170687677,-0.0218483948712134,0.642055570259584,0.660092771053314,0.0522712411696944,2.89832109257049
0.03,0.273016467669197,100.656927619026,101.169170687677,0.0497352963846031,0.591008804934319,0.661947846412659,-0.387844261044175,3.28804759831447
0.04,0.378412721250713,100.724563306576,101.169170687677,0.0129037098948186,0.658481045685805,0.681688725948334,-0.173766824097878,3.04669725069487
0.05,0.483813286909967,100.674410738392,101.169170687677,0.0591471896428116,0.673394438092602,0.661446332931519,-0.419588988569172,2.86584153800263
0.06,0.589242829479839,100.655776775453,101.169170687677,-0.0630136041239611,0.662609854107762,0.628184676170349,0.314863164375247,2.74634934007111
0.07,0.694666712738293,100.600916147265,101.169170687677,-0.0388281200116105,0.571187427709305,0.553178369998932,0.135449971865177,2.86359930226428
0.08,0.800073842420864,100.719777593667,101.169170687677,-0.07285031880474,0.571653191795248,0.620761275291443,0.358970826979467,3.27535237795871
0.09,0.905499045878191,100.610037019445,101.169170687677,0.0462224401357774,0.544005323107028,0.586867272853851,-0.340550827210653,3.24989814772521
0.1,1.01092146881571,100.738470878229,101.169170687677,0.0103665054973438,0.603985958001761,0.66303163766861,-0.136374210500337,3.3655727704754
0.11,1.11634729303434,100.753716423515,101.169170687677,-0.0163853555333916,0.528745688543103,0.573256015777588,0.0259016326411822,3.27276367025226
0.12,1.22177694384341,100.640330803961,101.169170687677,0.0285659599340806,0.620476946018762,0.603486478328705,-0.235354172539915,2.89665078981843
0.13,1.32720207690898,100.622441519432,101.169170687677,-0.039534592186169,0.530966877774917,0.540708899497986,0.179948609188164,3.08143752112322
0.14,1.43263697559931,100.691922331036,101.169170687677,-0.0160655659134383,0.53921915644642,0.590417146682739,0.0580965624013998,3.31414208880314
0.15,1.53805817656217,100.664950415782,101.169170687677,-0.0217204778072654,0.646599147930489,0.612641930580139,0.0974109030728286,2.79601071148786
0.16,1.64349168693364,100.663176582311,101.169170687677,-0.0509804050905447,0.577094735282222,0.61486941576004,0.268430535133394,3.23282646419397
0.17,1.74892633638095,100.663202327975,101.169170687677,0.0269213735338201,0.478701783816213,0.510900437831879,-0.190157445845581,3.20357225312732
0.18,1.85434038065443,100.642386414538,101.169170687677,0.0858025803876099,0.470430833284109,0.544190943241119,-0.554326643150669,3.45263768119502
0.19,1.95975333220236,100.682524241503,101.169170687677,-0.0403935842120512,0.587881092237913,0.601543605327606,0.228678327451381,3.12032251806588
0.2,2.0651872139791,100.741255271538,101.169170687677,-0.0319498074989173,0.707209061680107,0.667184233665466,0.169984339978114,2.80790515164269
0.21,2.17061644374526,100.763776709266,101.169170687677,0.0651575265897755,0.654625480291665,0.628446280956268,-0.438133239833366,2.88240287751245
0.22,2.27604442391708,100.679765600094,101.169170687677,-0.0168240836588274,0.63670050178241,0.613691329956055,0.0747594659971932,2.8898939661349
0.23,2.38147823971033,100.749175585839,101.169170687677,0.00623113706709089,0.724228854409561,0.671935975551605,-0.0551422801841905,2.72639626066051
0.24,2.48691111704636,100.696754536484,101.169170687677,0.0412259480125092,0.647207357854655,0.628963589668274,-0.296314657052309,2.92549047858931
0.25,2.5923399128185,100.674957599019,101.169170687677,-0.024816801498511,0.572897512830738,0.586138069629669,0.114872300636995,3.09246302485863
0.26,2.69777848773622,100.641534815782,101.169170687677,0.0838417324645364,0.554476424286568,0.589709222316742,-0.566522268017937,3.21749816743822
0.27,2.8031959194383,100.688650707951,101.169170687677,-0.0668934659678103,0.54190608298589,0.597797155380249,0.327292486132139,3.37012967585714
0.28,2.90861153367838,100.676425138333,101.169170687677,0.0691403849217581,0.525360010160994,0.596467912197113,-0.498931335822482,3.45866867946649
0.29,3.01404663075039,100.652922079264,101.169170687677,0.057352532563175,0.621469009173456,0.595996677875519,-0.434107487434565,2.86521130284118
0.3,3.11947650997878,100.604861448162,101.169170687677,-0.0671113185978398,0.524263803686321,0.547344744205475,0.325378221104479,3.17345748377252
0.31,3.22490669740086,100.691678328133,101.169170687677,0.034833586332043,0.49651135696403,0.551514446735382,-0.278213315148583,3.35768930411622
0.32,3.33032620521179,100.717180551597,101.169170687677,-0.0451839756404137,0.680001305554533,0.664861619472504,0.203676639722649,2.92996607654568
0.33,3.43575673434898,100.720495252832,101.169170687677,0.0408197699282948,0.712796058578281,0.682084262371063,-0.290368339192725,2.84794855416861
0.34,3.54119419979051,100.720928164278,101.169170687677,-0.0550028879649703,0.588184042996046,0.571904897689819,0.285213053774718,2.93328983088987
0.35,3.64661363733775,100.68505765656,101.169170687677,0.0635768763954316,0.494126360569692,0.55899053812027,-0.455503893364172,3.41553731488321
0.36,3.75203787060133,100.686746419854,101.169170687677,0.0134851868520474,0.697249209697996,0.655942499637604,-0.13692840268532,2.78356865602479
0.37,3.85747834867976,100.665744947888,101.169170687677,0.00916216766243375,0.595620144164694,0.546643853187561,-0.125001445954562,2.73443881079729
0.38,3.96289327227526,100.756053282348,101.169170687677,-0.0563665629460814,0.633278283407386,0.596747398376465,0.233001010052087,2.81150212029866
0.39,4.06831813146204,100.652431053606,101.169170687677,0.00833559930611137,0.627218415591382,0.603999674320221,-0.123125728218262,2.88741005577609
0.4,4.17375997423284,100.653957666788,101.169170687677,0.0147842085382174,0.552649426458003,0.577501535415649,-0.163312253235721,3.17267409532905
0.41,4.27918320800733,100.743182152574,101.169170687677,-0.00216892086716769,0.626631892380076,0.62487256526947,-0.0668431726513675,3.02491433871718
0.42,4.38460507892968,100.642726829021,101.169170687677,0.0938691050656163,0.598590550677238,0.615650475025177,-0.636654506647229,3.12539149081915
0.43,4.49004626097009,100.670968397105,101.169170687677,-0.0212288560292533,0.685374468114072,0.636079847812653,0.0352123021264131,2.71513615866992
0.44,4.59547228926859,100.647135368228,101.169170687677,-0.100957225810885,0.519070630270394,0.578394651412964,0.513421763014557,3.37983988629438
0.45,4.70089505361562,100.663979575155,101.169170687677,0.0287402780748929,0.508743114391799,0.530533194541931,-0.236917639058079,3.14347694080251
0.46,4.80632448471341,100.66994752587,101.169170687677,-0.0340146528957413,0.680802731452602,0.628930330276489,0.135981019497582,2.69198467728655
0.47,4.91175403226697,100.64915686977,101.169170687677,-0.0763175442606285,0.543370979204426,0.585743486881256,0.400293595134703,3.27520490657146
0.48,5.0171823798739,100.714545367423,101.169170687677,0.0264133725329974,0.502758374277882,0.553340077400208,-0.220391537676098,3.31942347383332
0.49,5.12260243934114,100.699500726363,101.169170687677,0.064346530333635,0.565166777040342,0.607181072235107,-0.444429722553463,3.2592854572601
0.5,5.22802996060571,100.646925648535,101.169170687677,0.0414249566078135,0.622898759301194,0.596378147602081,-0.289576937798156,2.86705092764883
0.51,5.3334565733733,100.720038624954,101.169170687677,0.0673725083371855,0.567761702182901,0.578473031520844,-0.457689428708164,3.09893357847627
0.52,5.43888103853488,100.695176954075,101.169170687677,0.0405738080659868,0.572025722831287,0.632833421230316,-0.321654061440577,3.38665019186157
0.53,5.54432172396212,100.674342821643,101.169170687677,0.00535216699944011,0.568292405228835,0.591249823570251,-0.101397025476349,3.1491486758353
0.54,5.64975422818117,100.66563455522,101.169170687677,-0.0420271714694835,0.609404319382796,0.588542997837067,0.16626927767987,2.89478968907915
0.55,5.75516978768333,100.712811457065,101.169170687677,0.00547154681316603,0.614274058302766,0.634705781936646,-0.145202421360443,3.148846423547
0.56,5.86058881696984,100.7567919179,101.169170687677,-0.0789795175984147,0.63375445539311,0.667013943195343,0.385021034954808,3.22864070493577
0.57,5.96603572121016,100.71215475302,101.169170687677,0.00725445361625338,0.585038688487424,0.612783908843994,-0.118825871910477,3.1890642561439
0.58,6.07144932166924,100.666096000251,101.169170687677,0.000630715765959425,0.489060399113798,0.569472908973694,-0.0930663030016338,3.52612382938696
0.59,6.17686568892906,100.669589179351,101.169170687677,0.0628407441146099,0.598569871564636,0.578859329223633,-0.438030016814256,2.91930823633708
0.6,6.28230829151901,100.714477150416,101.169170687677,0.0550347020665956,0.606301558128271,0.642230212688446,-0.401061901410441,3.2408295866311
0.61,0.104547709202691,100.700257880333,101.169170687677,-0.00712470727345532,0.591716708184976,0.66244512796402,-0.046947920936246,3.465897246843
0.62,0.209970151337489,100.703856257108,101.169170687677,-0.0202985345449603,0.555517477705489,0.638047337532043,0.0489283834676428,3.52339518436286
0.63,0.315402601502505,100.664027037538,101.169170687677,-0.0415345998591037,0.676056782187242,0.615241587162018,0.190242320486582,2.65276683731726
0.64,0.420825306666032,100.642510014069,101.169170687677,-0.0665930621124378,0.598616927916597,0.597121894359589,0.345381133469306,3.03797270433459
0.65,0.526245383102202,100.707084151298,101.169170687677,-0.0802813195384486,0.571599360318945,0.602861046791077,0.434397644147394,3.23333100138872
0.66,0.631676623388585,100.688426581137,101.169170687677,-0.00219230907945428,0.597916134672912,0.639945447444916,-0.0489147928386165,3.28628386462552
0.67,0.737102352828922,100.701767249471,101.169170687677,0.00883282566892202,0.710103658184152,0.708329916000366,-0.106936820251394,3.0464243653179
0.68,0.842538051189339,100.735823377619,101.169170687677,0.0200751992205767,0.574994074228786,0.60480123758316,-0.170387715841725,3.22584043260747
0.69,0.947958206064422,100.715909747016,101.169170687677,0.00350690281660029,0.595436041676145,0.64345520734787,-0.0822692627721277,3.32579958712926
0.7,1.05339203309174,100.676673107328,101.169170687677,0.0420185998222517,0.635699886454576,0.613558351993561,-0.291665988936487,2.90196476205084
0.71,1.15883005268306,100.684904083005,101.169170687677,-0.0243091227235598,0.591028802407218,0.548725664615631,0.112911265437697,2.78398368977648
0.72,1.26424252611846,100.716264675143,101.169170687677,0.0138173413460246,0.653395655930311,0.645226001739502,-0.162385718529181,2.99362635432995
0.73,1.36967848905127,100.688793938513,101.169170687677,-0.0939847674129557,0.605248948379727,0.636737823486328,0.504060732608924,3.21772576569405
0.74,1.47512210771444,100.670204697172,101.169170687677,-0.0567244085957236,0.623451843542022,0.631275773048401,0.286078179773216,3.07227810734522
0.75,1.58054942927993,100.726407068095,101.169170687677,-0.0102806065962686,0.518631327379554,0.608526587486267,-0.0272897579119421,3.56703522167633
0.76,1.68597094982902,100.670886705194,101.169170687677,-0.00146247786036779,0.562430698442555,0.584162652492523,-0.056398107592209,3.14801903066922
0.77,1.79140666629756,100.679337449733,101.169170687677,0.0475774265837298,0.567871248056064,0.593503773212433,-0.370281814859603,3.17365856581316
0.78,1.89683676778525,100.639159568692,101.169170687677,-0.0327071722421955,0.477039077211922,0.532679617404938,0.111144475611304,3.36301741015483
0.79,2.00225354224476,100.735225741629,101.169170687677,0.0234794376071877,0.636551698459737,0.625284314155579,-0.205695899099024,2.95551259821251
0.8,2.10767862024979,100.734730944024,101.169170687677,-0.0161929113137682,0.718597280726413,0.668420970439911,0.0434775558788092,2.72589363679587
0.81,2.21310559364278,100.634956243022,101.169170687677,-0.0458455430212059,0.536255241519664,0.577482342720032,0.234997184847449,3.29552494276833
0.82,2.31853115058036,100.748158770286,101.169170687677,0.00478575159224592,0.514792734919192,0.554891228675842,-0.06857290538213,3.28072683940277
0.83,2.42396383617741,100.667978487023,101.169170687677,0.0938568550020565,0.5572796583599,0.618092834949493,-0.619961813644035,3.38239962023101
0.84,2.52939241096358,100.688982991369,101.169170687677,0.0472242905147252,0.638607599315208,0.607369005680084,-0.337184078776606,2.85020556124825
0.85,2.63482443393772,100.70691275232,101.169170687677,-0.0368252005881241,0.577936716656025,0.649037718772888,0.160111319970752,3.45749732384655
0.86,2.74024047947676,100.671438030785,101.169170687677,-0.00847981449920376,0.634752494540844,0.614466309547424,-0.022806189650576,2.90550854533619
0.87,2.84565709155869,100.665557798246,101.169170687677,0.00745938978346139,0.636896910711847,0.62625777721405,-0.0874101066026445,2.99079974116095
0.88,2.95109936347075,100.693472729586,101.169170687677,0.0737101233084893,0.577252876883233,0.592826664447784,-0.483095050516947,3.1384449068683
0.89,3.05651811120936,100.743850312249,101.169170687677,0.0710844277032261,0.584936366021496,0.669216871261597,-0.500833426571499,3.54152719939068
0.9,3.16194350016385,100.65651606015,101.169170687677,-0.0936913678464889,0.576997722682534,0.596897900104523,0.515314181222455,3.15774542244358
0.91,3.26738425195781,100.699174481744,101.169170687677,0.0779856773976397,0.59286271051863,0.61362361907959,-0.53047754638555,3.15922137113978
0.92,3.37280510388068,100.659341299272,101.169170687677,0.0140444609966511,0.527747829666877,0.490210711956024,-0.176241672531632,2.80909310448498
0.93,3.47823263344075,100.698615008089,101.169170687677,-0.0259932633944729,0.578162688622199,0.593971371650696,0.0966409150135762,3.11533425995611
0.94,3.58366826870026,100.675905695028,101.169170687677,-0.0114230097819823,0.581998880987545,0.625443875789642,-0.00355505992066894,3.28381347970829
0.95,3.6890967354556,100.697479746794,101.169170687677,-0.0181880475316462,0.54950359208335,0.588072061538696,0.0187625777184843,3.25872780842279
0.96,3.79451451683798,100.711531062289,101.169170687677,0.00190518408357972,0.582188778178326,0.621159374713898,-0.0629577972420028,3.25399420514636
0.97,3.89994735695112,100.663314080838,101.169170687677,0.0311385027272065,0.683153761860909,0.639804661273956,-0.234485086578589,2.75455039831502
0.98,4.00537262769592,100.67604580346,101.169170687677,-0.0614876320555651,0.652784371426748,0.618692755699158,0.321437684982447,2.83859556961779
0.99,4.11079560907884,100.686713949968,101.169170687677,-0.0135172574872068,0.509423114060856,0.593470692634583,0.0338672028316362,3.54402280227863
1,4.21623035098113,100.684277931609,101.169170687677,0.0544520026833469,0.578684936325436,0.631390631198883,-0.380834185620309,3.33524298660872
1.01,4.32166132649249,100.661469074059,101.169170687677,0.0297368215183722,0.688907697243756,0.656675338745117,-0.217287310257833,2.83600793855799
1.02,4.42708886026665,100.737660132495,101.169170687677,-0.0716177521234956,0.635574082449759,0.710730850696564,0.39101083935073,3.48315101151709
1.03,4.53250818472483,100.64608544943,101.169170687677,-0.002920571995709,0.621084838671073,0.581209242343903,-0.0285605149538489,2.78439126078506
1.04,4.63793698254763,100.644598604766,101.169170687677,0.0822626133255475,0.627162848321464,0.61586594581604,-0.521648834379367,2.97296482231982
1.05,4.7433748200834,100.685546237648,101.169170687677,-0.0835486210865093,0.650710750175515,0.647688448429108,0.458405382644827,3.0243302248496
1.06,4.84879378788557,100.666258758295,101.169170687677,0.0125834344695391,0.599242067551159,0.588637113571167,-0.136861957770826,2.97175478812605
1.07,4.95422691215111,100.647114851093,101.169170687677,0.0658770096962499,0.602363580211702,0.57974249124527,-0.432413547690277,2.89685318466006
1.08,5.05967483274934,100.697244434427,101.169170687677,-0.0747285141261153,0.604817494950321,0.572993159294128,0.404601284947334,2.8275388666627
1.09,5.16510105860945,100.765459225247,101.169170687677,0.065758605491387,0.651734044033665,0.620048046112061,-0.455868560326628,2.82339552091699
1.1,5.27051854481224,100.696115738182,101.169170687677,-0.0174382258014558,0.602085591867846,0.651475369930267,0.0599176697981707,3.31372607698107
1.11,5.37595068850559,100.68054293106,101.169170687677,-0.0313203850339189,0.577967726420902,0.611698508262634,0.137942430556712,3.23032466633977
1.12,5.48137124033171,100.65509916223,101.169170687677,0.0275423723326857,0.58805582673172,0.555582940578461,-0.231912042506973,2.85097406234902
1.13,5.58678802934321,100.658302595562,101.169170687677,0.0147853383302849,0.494862675949278,0.549917757511139,-0.151145116828714,3.37268755538742
1.14,5.6922202258771,100.67122387582,101.169170687677,-0.0428127208878816,0.639905469623957,0.619781374931335,0.172872641617022,2.92245841354655
1.15,5.79764640746205,100.702799908995,101.169170687677,-0.000182614359216321,0.575389380110513,0.627406299114227,-0.101732354020158,3.37646046645726
1.16,5.90307537621561,100.697430562657,101.169170687677,-0.020641410844066,0.518774384712716,0.595714151859283,0.0372632098902242,3.50460685921643
1.17,6.00850628321783,100.685716702908,101.169170687677,0.00867263329817311,0.695220448005426,0.651022970676422,-0.133893638471741,2.76966250141952
1.18,6.11394116508786,100.690225367483,101.169170687677,-0.0336707933408931,0.56327672445704,0.58615642786026,0.128673117997557,3.1838897171432
1.19,6.21937415844584,100.711765735286,101.169170687677,-0.0178890081149694,0.541269144037821,0.578797459602356,0.0360232701024082,3.26041395597482
1.2,0.0416140513796979,100.649002090192,101.169170687677,0.0117492661024188,0.509689729104248,0.560666382312775,-0.148237572238888,3.32813167254539
1.21,0.147039730180987,100.665549231472,101.169170687677,0.00824005872403527,0.61102979917622,0.557745039463043,-0.103481884910416,2.72083179566511
1.22,0.252476685596788,100.74469809335,101.169170687677,-0.0481563309915892,0.612462912958174,0.592785656452179,0.227751589673121,2.92215018012787
1.23,0.357891620902029,100.61583631494,101.169170687677,-0.0108763221852246,0.617165167160515,0.581994116306305,-0.00649017874679654,2.82286202837946
1.24,0.463330495171444,100.682254304678,101.169170687677,-0.0590766524910936,0.578795235927792,0.592870950698853,0.291371832284705,3.11200287570012
1.25,0.568770094447945,100.672051825267,101.169170687677,0.0613406721805919,0.554400286294163,0.54747086763382,-0.444248037743087,2.98680493019597
1.26,0.674187696715753,100.631187898343,101.169170687677,-0.0614936014204643,0.55622021059133,0.556439459323883,0.248315505254557,3.03558068791079
1.27,0.779608785181471,100.684971715783,101.169170687677,0.0180279227942478,0.645497093777048,0.640677154064178,-0.220974816252489,3.00515236458665
1.28,0.885046038352327,100.69050553849,101.169170687677,0.06641627526992,0.573803647835748,0.579773902893066,-0.516955349330194,3.07405983232972
1.29,0.990468715444958,100.676144332607,101.169170687677,0.00585215130561539,0.589304323508947,0.558458685874939,-0.189578773299071,2.86410246573187
1.3,1.09589283994222,100.647967252805,101.169170687677,0.0113173518844476,0.604821246166869,0.580197930335999,-0.197338954825032,2.88431296286818
1.31,1.20132895628962,100.657860449163,101.169170687677,0.00894747652577282,0.68528583736867,0.653087615966797,-0.177132481931887,2.83712997188561
1.32,1.3067575128588,100.697794255973,101.169170687677,-0.0847516390151727,0.485514953269181,0.562555551528931,0.397046999127594,3.50558555792246
1.33,1.41218540281167,100.77070853877,101.169170687677,-0.0397011616056145,0.542499673962211,0.575137436389923,0.154918167597299,3.22234240549391
1.34,1.51760905507205,100.66861182348,101.169170687677,-0.0260462807272662,0.695078862974817,0.661272048950195,0.089311081839789,2.82604202838815
1.35,1.62304204775037,100.679293489798,101.169170687677,-0.00215819834429756,0.623887643048602,0.588264286518097,-0.0458631346929872,2.82674694181504
