t,theta,omega,r,i_d,i_q,i_q_ref,v_d,v_q
0,0,0,290.432973985883,-2.30261590609715e-24,0,0,0,0
0.01,0.0641827260692928,125.510409089063,290.432973985883,0.149988414308583,7.63224214892414,10,-0.976727952748622,17.8898782676305
0.02,0.261308136932517,248.476885954601,290.432973985883,0.184753521906615,7.71431025734662,10,-1.50528981951771,20.7805245259133
0.03,0.556331507958809,288.741990673896,290.432973985883,-0.125057770996821,1.89228240564108,2.12522125244141,0.153006170083241,9.61404212427476
0.04,0.858881971341232,288.962575279481,290.432973985883,-0.0690044290864966,1.64178325706933,1.78050172328949,-0.193254751555769,9.26321900277427
0.05,1.16144737151568,288.963189506773,290.432973985883,-0.111814509003257,1.66280630419315,1.7356162071228,0.0538674417844188,9.04108961173469
0.06,1.46403391688216,288.987437662039,290.432973985883,0.0173019620784881,1.6865242946977,1.76882255077362,-0.720783015039166,9.23670376199517
0.07,1.76664314518245,288.961786591108,290.432973985883,-0.0508778005418634,1.72009352045903,1.73405396938324,-0.305525383123175,8.92885088289054
0.08,2.0692620956356,288.961134905475,290.432973985883,0.017429207691081,1.67164570463113,1.70545053482056,-0.732672722242599,9.13110163803056
0.09,2.37189033079573,288.96830177029,290.432973985883,0.0212411585782465,1.71544643893407,1.77135694026947,-0.743058773674018,9.32887563032556
0.1,2.67451989598541,289.013666874652,290.432973985883,-0.0848845547849809,1.749586161174,1.72030591964722,-0.127336201359112,8.87989980288173
0.11,2.97717030800358,288.975180202265,290.432973985883,-0.0190813191820717,1.7461338179622,1.69770920276642,-0.535242542096655,8.79245112510888
0.12,3.2798160083207,289.00215745133,290.432973985883,-0.0337669344020526,1.78378315083313,1.76903545856476,-0.439194543922573,9.02758475568294
0.13,3.58245779509012,289.060358161362,290.432973985883,-0.0935061896660811,1.83802885894248,1.81396198272705,-0.0766786464021673,9.00522106660628
0.14,3.88511136040172,288.966459823669,290.432973985883,0.10011256836665,1.79369287000842,1.81306755542755,-1.22866129900107,9.28335352542671
0.15,4.1877593459858,288.951874000904,290.432973985883,0.0533919524605201,1.79810630107466,1.82075488567352,-0.964034779830195,9.32570287954951
0.16,4.4904137553914,288.957447860146,290.432973985883,0.138316150983672,1.88169120556467,1.87019801139832,-1.45203364714892,9.13231260254189
0.17,4.79306232854081,288.964040039816,290.432973985883,0.0208800323326886,1.89615819329952,1.87059092521667,-0.736432976733571,9.06862210541578
0.18,5.09572172762057,289.067524596296,290.432973985883,-0.0132147536396077,1.87986467780716,1.8200591802597,-0.548402997190739,8.87303368183951
0.19,5.39839873485974,288.998242221391,290.432973985883,0.0829842863303792,1.764471638302,1.77799582481384,-1.13709090782723,9.29773799103297
0.2,5.70105663887135,288.974961205169,290.432973985883,0.014529028068668,1.85715756326574,1.82757449150085,-0.734698977081233,9.05132286041378
0.21,6.00372425507092,288.985321057625,290.432973985883,-0.0247043140625768,1.87006019570453,1.82756078243256,-0.504691255518488,8.9678222534973
0.22,0.0232044585898246,289.020837925771,290.432973985883,0.06873047654505,1.79652319255619,1.8086451292038,-1.06790223730882,9.29486545389468
0.23,0.325866588922862,289.045584932572,290.432973985883,0.0427241335723746,1.85650118641655,1.8122673034668,-0.904375827815298,8.95777530704463
0.24,0.628536329920051,289.044640144999,290.432973985883,0.0505744027683201,1.80379857585264,1.78289580345154,-0.940746146600503,9.08759176112381
0.25,0.93119172312277,289.031843397392,290.432973985883,0.00290219361857857,1.72724492586065,1.77662658691406,-0.639054197692182,9.52091611069425
0.26,1.23386728940974,289.037474569227,290.432973985883,0.0503369121019459,1.78460450184337,1.77049291133881,-0.946483692885441,9.12291501274999
0.27,1.53653553955492,289.015193297685,290.432973985883,0.0409371157567487,1.66354503346461,1.73382699489594,-0.874361889112569,9.62710541796234
0.28,1.83920075000999,289.047912092314,290.432973985883,0.0367835511742788,1.68867317207743,1.7909482717514,-0.863393591419301,9.82081506650508
0.29,2.14186075837402,289.003405266906,290.432973985883,0.0747678585123772,1.64329271653948,1.74314904212952,-1.08577183815826,9.8150297593921
0.3,2.44452983278531,289.046437792766,290.432973985883,0.0258548429083779,1.7610625883188,1.78972411155701,-0.810642150627208,9.38633784069249
0.31,2.74718877852976,289.033669905303,290.432973985883,-0.0113035265677338,1.64285711922914,1.73930513858795,-0.576229628483633,9.803610524681
0.32,3.04985443717234,289.04748892224,290.432973985883,-0.0473760172292118,1.73982973530557,1.75196063518524,-0.354987445761347,9.29456631494295
0.33,3.35251486061396,289.073634593647,290.432973985883,-0.0176938340952131,1.7638455997404,1.80802047252655,-0.522120648134333,9.49491208558451
0.34,3.65518027267837,288.994397074414,290.432973985883,0.0561985937583018,1.51148649072641,1.70053422451019,-1.00824733139882,10.3675143280256
0.35,3.95784532036235,289.021777834125,290.432973985883,0.130331399072239,1.64136471377501,1.69787836074829,-1.44367405849983,9.57691361332585
0.36,4.26051878279678,289.144092028246,290.432973985883,0.0574232768553874,1.71689470164946,1.79639434814453,-1.01734044126883,9.70288651529994
0.37,4.56318223975479,289.022880993436,290.432973985883,-0.0340656481563283,1.58183102938793,1.75234377384186,-0.468536229494913,10.2579101008352
0.38,4.86584507070542,289.111852221342,290.432973985883,-0.0529011513577171,1.64356330894289,1.82102763652802,-0.3448070417236,10.3120242446179
0.39,5.16850500831861,289.144305599678,290.432973985883,-0.0141765502405278,1.67543308580337,1.76545977592468,-0.581896431049103,9.79175647211868
0.4,5.4711667882945,289.087694511465,290.432973985883,-0.0327676528731337,1.64265617272181,1.77515685558319,-0.46501710366674,10.0537151729783
0.41,5.77383565814496,289.141070563045,290.432973985883,-0.00536327811785942,1.66732407945575,1.74878883361816,-0.627783524138104,9.74137487904965
0.42,6.07650737679022,289.179115377772,290.432973985883,-0.0954179119564139,1.62029608569594,1.73542857170105,-0.107628860356124,9.93531166440701
0.43,0.0959836219473846,289.124940560911,290.432973985883,-0.0656808945043652,1.64876362626639,1.71226727962494,-0.296424934254981,9.63341061990775
0.44,0.398645159406025,289.126542871228,290.432973985883,-0.153317943772016,1.64676829838138,1.75010275840759,0.22834368822505,9.87894874537704
0.45,0.701317683309101,289.115142326694,290.432973985883,0.0220986469271413,1.63872557039343,1.60639345645905,-0.799473637133049,9.05578113623947
0.46,1.00398675682426,289.065253442001,290.432973985883,-0.0742546345142915,1.61853542439157,1.65423309803009,-0.227431280863446,9.45648994278638
0.47,1.30665429961867,289.037811225546,290.432973985883,-0.0227675908532541,1.61218509019856,1.58312821388245,-0.527228753424871,9.06132246156388
0.48,1.60930654358376,288.997833361462,290.432973985883,-0.0552852220601411,1.62463556601958,1.66283249855042,-0.31792874575463,9.48446859764993
0.49,1.9119587633626,289.028700151287,290.432973985883,-0.0343096498326002,1.71065216505061,1.66306734085083,-0.425511319174268,8.98708926117651
0.5,2.21462499422445,288.919461976181,290.432973985883,-0.0183246671375856,1.56308893806174,1.57617688179016,-0.538786522866709,9.34592167250926
0.51,2.51728998122777,288.96828037918,290.432973985883,0.0226873991104202,1.63180999016593,1.58113133907318,-0.792078870903071,8.95912714538654
0.52,2.81994503823347,288.998171312716,290.432973985883,0.057603158893189,1.74961472039716,1.67673420906067,-0.992254862319534,8.8326450507483
0.53,3.12261817327212,288.988088375214,290.432973985883,-0.0803658867744859,1.67885779463213,1.66301262378693,-0.155770930098142,9.16522397732465
0.54,3.42528864315883,288.989036695829,290.432973985883,-0.0164372098990414,1.75235412531075,1.70342242717743,-0.529744113865431,8.96317124134741
0.55,3.72796148412662,289.106922473016,290.432973985883,0.114655198890677,1.85718496126386,1.79699265956879,-1.32256199334182,8.87979985289693
0.56,4.03062353190935,288.970187598194,290.432973985883,0.0897922529773922,1.78141036426937,1.73519194126129,-1.18917909852427,8.96319646735654
0.57,4.3332885650899,288.980779118978,290.432973985883,0.0163997762248269,1.81255025772504,1.7542382478714,-0.753137577320642,8.881120456749
0.58,4.6359463685438,288.967807220628,290.432973985883,0.052907527441858,1.91192064796452,1.83125519752502,-0.964913083995905,8.75740352780853
0.59,4.93861237708082,289.027890459962,290.432973985883,-0.0809595392548827,1.77899102594858,1.79544746875763,-0.171573562738528,9.34091993087204
0.6,5.24127895433968,289.020287070246,290.432973985883,-0.0246624796219636,1.78358668657952,1.80164420604706,-0.506603503873772,9.34610042768167
0.61,5.54394592220188,289.042924107594,290.432973985883,-0.0687244912665916,1.79892751921646,1.79697835445404,-0.237484397075181,9.22458473999491
0.62,5.84661467356833,289.03510225127,290.432973985883,-0.0201339249312526,1.82114338569856,1.80744314193726,-0.518830915920404,9.14712669853358
0.63,6.149274251841,289.043258986827,290.432973985883,0.0230429463495982,1.87839049364284,1.8153110742569,-0.784645065254149,8.85682801096618
0.64,0.168758825951485,289.037720554117,290.432973985883,0.0446057794051499,1.78878202958119,1.76333391666412,-0.921898758692825,9.07490454722915
0.65,0.471424031196257,289.023143850033,290.432973985883,-0.0358608580891276,1.74820451049934,1.78048324584961,-0.439036959237231,9.41757432279355
0.66,0.774079803015887,289.062507449249,290.432973985883,-0.0182817996254933,1.8251566779624,1.82493555545807,-0.548588514118396,9.23048522483041
0.67,1.07673745285362,289.016442764469,290.432973985883,-0.00442459529303263,1.78257393832599,1.79429936408997,-0.624632133310235,9.31212840201443
0.68,1.37939880612964,289.020239885434,290.432973985883,0.0567315100537635,1.76032271235627,1.72314918041229,-0.978214646588074,9.01597639111305
0.69,1.68206618823352,289.021501431564,290.432973985883,0.0434786757824521,1.77150491247601,1.77175664901733,-0.893167611275958,9.23922927939293
0.7,1.98473675027482,289.097647552868,290.432973985883,0.0715485501317134,1.82778747461602,1.82162880897522,-1.07361281396346,9.19529761454645
0.71,2.28739915423625,289.090476782104,290.432973985883,0.143199242262815,1.79727213899022,1.84763085842133,-1.49300306760148,9.53962839758432
0.72,2.59005945041971,289.057013497914,290.432973985883,0.0441003891544814,1.69432209264853,1.8006671667099,-0.909251664901461,9.88338655885365
0.73,2.89272112648959,289.033322167651,290.432973985883,-0.0230054333921266,1.68676659720927,1.7402890920639,-0.506418032195525,9.56653489727657
0.74,3.19540416915789,289.054892635666,290.432973985883,0.0136576136175558,1.6480995502456,1.70662665367126,-0.738448219573642,9.56942902587034
0.75,3.49806407861163,289.048967238254,290.432973985883,0.038295754768249,1.66965117920635,1.75760531425476,-0.887936011818219,9.74653703415845
0.76,3.80072633404966,289.098882064406,290.432973985883,-0.0399678160016556,1.67692585479272,1.7784583568573,-0.380430445404568,9.83328625209246
0.77,4.1033908870992,289.114696436003,290.432973985883,0.00211677469791083,1.66496259982008,1.79434323310852,-0.630476966345729,10.0011139212873
0.78,4.40605868011481,289.076606423574,290.432973985883,0.00889701542362487,1.58709522857103,1.6757687330246,-0.665270665739845,9.75521047775169
0.79,4.70872091517066,289.105394874254,290.432973985883,0.122179566620188,1.63215456655762,1.74797546863556,-1.38151496078729,9.92329137196293
0.8,5.01139271775335,289.099880931118,290.432973985883,0.00440290470482796,1.64519973990384,1.71501314640045,-0.64391754243732,9.64451101515725
0.81,5.31406016935854,289.09663774228,290.432973985883,-0.0125777388385702,1.61437108967993,1.69449424743652,-0.533050221549721,9.70461041666987
0.82,5.61672508038966,289.129369842021,290.432973985883,0.0687214101718544,1.59321001772914,1.71189188957214,-1.01334133496305,9.94040242337681
0.83,5.91939825019299,289.147572293194,290.432973985883,-0.105254755466174,1.58935268299112,1.68534326553345,0.030570835534883,9.80029304341027
0.84,6.22205977581434,289.141716772631,290.432973985883,0.0450519897368509,1.61528128276841,1.67446720600128,-0.891918485614859,9.58371458513563
0.85,0.241542933011232,289.155210625263,290.432973985883,0.010902484604602,1.65726962205467,1.73633086681366,-0.694944031312545,9.70267328893488
0.86,0.544202990878006,289.156075196676,290.432973985883,-0.0603788980519534,1.71714502543799,1.7535480260849,-0.260196878994159,9.45326098245351
0.87,0.846864495401316,289.086355175992,290.432973985883,-0.105955325195248,1.62335213322976,1.641725897789,0.0100835330291426,9.35440670956164
0.88,1.14952701840723,289.151651945814,290.432973985883,-0.0485111772379426,1.70093659210619,1.69643092155457,-0.339965780623704,9.2265309889156
0.89,1.45219273623926,289.094064670726,290.432973985883,0.0542931429012893,1.6348641719645,1.64605712890625,-0.987652443589893,9.31879167850867
0.9,1.75487081603843,289.067594046002,290.432973985883,0.0410589953789455,1.6178526633568,1.62393462657928,-0.947765282454292,9.26558924567555
0.91,2.05753795473607,289.043967988116,290.432973985883,0.0123458533210912,1.6290484868074,1.63306701183319,-0.793021355396211,9.25023604306263
0.92,2.36019459420707,289.007231202118,290.432973985883,0.0514079933976559,1.64728502448625,1.63664400577545,-1.00252116040402,9.1718753160871
0.93,2.66286026921792,289.009076433258,290.432973985883,0.056361186771038,1.64972547676366,1.62235796451569,-1.02623051059399,9.07017633390916
0.94,2.96552742370737,289.064201841715,290.432973985883,0.0054106516170358,1.69015719198931,1.66994917392731,-0.702953550571521,9.1114676617687
0.95,3.26819680073924,288.996611614083,290.432973985883,0.0168820301024721,1.68565021667035,1.6789687871933,-0.76013869518,9.18480363176267
0.96,3.57087171630127,288.996628603221,290.432973985883,-0.123555430004177,1.61929254851213,1.5561261177063,0.0933454017750756,8.83364737220542
0.97,3.87352774198343,289.021282979921,290.432973985883,-0.0761229638395513,1.79471045350532,1.76073694229126,-0.17926619214275,9.01502418699559
0.98,4.17618931110215,289.019860135998,290.432973985883,0.0353285556759652,1.72580085582141,1.71700263023376,-0.834821120289677,9.17489290709119
0.99,4.47886307155276,288.944772862797,290.432973985883,-0.0176451831011508,1.78854148327574,1.7689071893692,-0.516710971714555,9.10060771725799
1,4.78153086684906,288.979957799992,290.432973985883,-0.0600298893765475,1.76249354547817,1.69382762908936,-0.27029454335904,8.80004735989179
1.01,5.08419828341436,289.01364237529,290.432973985883,-0.0696487656600803,1.82850704265109,1.76285016536713,-0.207692242170342,8.81161605774383
1.02,5.38685245155657,288.954065503319,290.432973985883,-0.00981464320741836,1.90923768336654,1.83828628063202,-0.567775552771041,8.78978191335277
1.03,5.6895227270931,288.986419170261,290.432973985883,0.0601429077724399,1.81944606103238,1.83264946937561,-0.999728387272174,9.29013975293985
1.04,5.99217732420961,288.962929512922,290.432973985883,0.0931389156432266,1.75495641210564,1.77148115634918,-1.17623953119383,9.32708541183862
1.05,0.0116494929781439,288.993252197239,290.432973985883,0.0783005969061709,1.75753977331045,1.76275038719177,-1.11018918567815,9.26918820561207
1.06,0.314308774888655,289.007324430097,290.432973985883,0.0459365619676543,1.84458139850998,1.85505616664886,-0.923439993635245,9.30883337739833
1.07,0.616972395211022,289.017660612967,290.432973985883,-0.0216595051210932,1.85248524058417,1.81082499027252,-0.53187275797158,8.99740617281075
1.08,0.919644988363721,289.009202195744,290.432973985883,0.0686132761704728,1.84670131834621,1.85480284690857,-1.07116157346975,9.28104223812884
1.09,1.22230369423523,289.063763821184,290.432973985883,0.0561572563946044,1.87358952064049,1.83855199813843,-0.984350843313984,9.02969248278062
1.1,1.52496829044662,289.039848945899,290.432973985883,-0.000952920730749929,1.76847732570806,1.81484878063202,-0.651607877765052,9.52143530992381
1.11,1.82763723475423,289.041629658382,290.432973985883,-0.052029362251821,1.80746268239606,1.77445673942566,-0.325053505785429,9.0420696773899
1.12,2.13030993529416,289.011328096583,290.432973985883,-0.00564570063277059,1.79017513564933,1.79269003868103,-0.621304095496336,9.24502147861557
1.13,2.4329744274194,289.079539835751,290.432973985883,0.00997017942325296,1.72139306524065,1.79653811454773,-0.714509438391345,9.68501183040309
1.14,2.73564227914331,288.995177622263,290.432973985883,0.108321126726663,1.76439230291337,1.79209804534912,-1.33621424418143,9.39667969912998
1.15,3.03831404308384,289.011595051041,290.432973985883,0.0619330582365459,1.75807462183855,1.80398571491241,-1.05758795095523,9.50166684886661
1.16,3.34097855850723,289.009418132915,290.432973985883,0.04173863420565,1.66860039855448,1.7937194108963,-0.959667041334189,9.98116903490786
1.17,3.64363591588521,289.056941284289,290.432973985883,-0.0205713870601987,1.78421415656736,1.80384540557861,-0.585944059265676,9.35735118604153
1.18,3.94631919062471,289.013444546542,290.432973985883,0.0209128158720707,1.68671249476944,1.72415888309479,-0.820189641496803,9.44126413801427
1.19,4.24897695720104,288.970966486607,290.432973985883,0.0952843940053768,1.57343345920194,1.71493136882782,-1.2725577620068,10.0748489234642
1.2,4.55164282960601,289.084898305258,290.432973985883,-0.00952190382213669,1.77011316619479,1.83336544036865,-0.663197157013247,9.607832384052
1.21,4.85430018846156,289.055050816056,290.432973985883,0.0247894727850977,1.55149677842536,1.69943475723267,-0.840389051608219,10.13341384952
1.22,5.15697808390471,289.041193135688,290.432973985883,0.0350581838523183,1.48338465557058,1.66206872463226,-0.893869972434817,10.3034280386952
1.23,5.45964465533466,289.092454273843,290.432973985883,0.0288873127663589,1.67102799762647,1.74086964130402,-0.866099554632168,9.65047960607629
1.24,5.76230964615297,289.041926535338,290.432973985883,-0.0182628854137451,1.57485693655773,1.72351217269897,-0.568004288915557,10.1279464163187
1.25,6.06498103238903,289.184213884466,290.432973985883,0.0673104307531648,1.72486803293806,1.77410709857941,-1.08111323623398,9.52640333556925
1.26,0.0844691439125,289.165341572645,290.432973985883,0.0176008530652709,1.65226474021609,1.73344397544861,-0.783889750711418,9.70875454257618
1.27,0.387127787340752,289.08269281924,290.432973985883,-0.0342312550581475,1.65858533996566,1.69942033290863,-0.443837875162652,9.47272930397296
1.28,0.689792363445576,289.142706172607,290.432973985883,-0.0531818104052262,1.63775727735884,1.7326488494873,-0.323489650622789,9.80160246026833
1.29,0.992458154686162,289.07959700255,290.432973985883,-0.0969024848007407,1.5980716494991,1.71858847141266,-0.0523403362548277,9.95417210575433
1.3,1.29512402694153,289.071103160613,290.432973985883,-0.153725706412728,1.57080836050088,1.68510675430298,0.308200370391862,9.91940092004702
1.31,1.59778927566017,289.06192878564,290.432973985883,-0.113606109589163,1.58749543179768,1.65896463394165,0.068915248096611,9.66617501643764
1.32,1.90046240183405,289.099611563047,290.432973985883,-0.0648541405351326,1.6462726209632,1.69293820858002,-0.218728639098198,9.50653159538695
1.33,2.20312824928085,289.033011418051,290.432973985883,-0.0470862197617903,1.62427353818591,1.64712631702423,-0.326001113977334,9.36082314523914
1.34,2.50578792663577,289.026502949426,290.432973985883,-0.089112948840866,1.65252562974838,1.71156442165375,-0.075723128211349,9.58747444430041
1.35,2.80845717370395,288.881529313799,290.432973985883,-0.12886823104484,1.5596507114926,1.59949386119843,0.17165783216182,9.46483291288482
1.36,3.11110594937831,288.976837820283,290.432973985883,0.00780531341885543,1.69401003001865,1.61120080947876,-0.664851083465935,8.74669075069911
1.37,3.41377394682365,288.989640849654,290.432973985883,0.061231633102325,1.66967656368421,1.61446166038513,-1.00924241085927,8.90580854058943
