t,theta,omega,r,i_d,i_q,i_q_ref,v_d,v_q
0,0,0,282.401425243846,-2.2235981910348e-24,0,0,0,0
0.01,0.0666929591886663,130.915155995169,282.401425243846,0.122192469901065,7.49842632392701,10,-0.84580877430405,18.84302848409
0.02,0.271887287900081,258.222984844894,282.401425243846,0.280088490056261,7.67489534609364,10,-2.12122853461995,21.282462356515
0.03,0.563852008005029,280.853716877763,282.401425243846,-0.0925398435686674,1.38145839053379,1.53156328201294,-0.000449868811801535,8.88616814657511
0.04,0.857970014534013,280.966246492116,282.401425243846,-0.129393278252709,1.66558869893093,1.81277644634247,0.198095916509874,9.15823762581459
0.05,1.15214064080323,280.956850324618,282.401425243846,-0.0575231506403608,1.60881357666365,1.73401641845703,-0.22203890577795,9.2375579244372
0.06,1.44634223301584,281.086669475038,282.401425243846,0.0786170093420743,1.67132938671958,1.77788186073303,-1.06671255750542,9.2789875507377
0.07,1.74055989541977,281.147146825449,282.401425243846,0.050896397097513,1.67407762750504,1.79534757137299,-0.887639109495747,9.49116457725767
0.08,2.03477664044574,281.141905827239,282.401425243846,-0.0147736861314265,1.65031528069685,1.79470193386078,-0.516615632238425,9.74717863206941
0.09,2.32903008178046,281.146822254114,282.401425243846,-0.0202521102523811,1.56333132996311,1.66323256492615,-0.476298549246057,9.54420236876997
0.1,2.6232826487879,281.141975563745,282.401425243846,0.0284771301495084,1.64812842578869,1.74817621707916,-0.793822703389807,9.59656851875636
0.11,2.91754593262104,281.142602831473,282.401425243846,-0.0393274523373919,1.59665852624074,1.77056479454041,-0.392938769744299,10.0801947994063
0.12,3.21180708007739,281.090441603195,282.401425243846,0.0789529234635239,1.46576789516515,1.59905576705933,-1.10402387086685,9.8749632706125
0.13,3.50607178006204,281.069160393077,282.401425243846,0.0531180995869777,1.50790403638549,1.67878246307373,-0.947492688640229,10.1365327642681
0.14,3.80034846288373,281.036914406911,282.401425243846,0.0145951700104766,1.54464060032196,1.68739545345306,-0.700589309143418,9.98410361716531
0.15,4.09461577257038,281.104928087028,282.401425243846,-0.0180020054602535,1.64313613625165,1.72733104228973,-0.492400312308602,9.66408940855531
0.16,4.38889894727194,281.070787285772,282.401425243846,3.34078668251525e-06,1.6181538311105,1.70080471038818,-0.60966158044141,9.6603174648181
0.17,4.68317865123546,281.057503708688,282.401425243846,0.0676051037689201,1.64716074780439,1.72556436061859,-1.03587906151482,9.64371143256025
0.18,4.97745981161587,281.079746811157,282.401425243846,-0.0141645240798502,1.68525994474667,1.74237489700317,-0.548384637517801,9.51983018647704
0.19,5.27173228609493,281.085206051879,282.401425243846,0.0809559757743851,1.77704895391483,1.79030478000641,-1.10880165847829,9.27558486056808
0.2,5.56602614798421,280.995106909757,282.401425243846,0.0681375195283251,1.73969115360923,1.75801980495453,-1.01953820381073,9.30009372126111
0.21,5.86030711008165,281.039796908457,282.401425243846,0.0720003612237932,1.73943981260399,1.75028252601624,-1.05476237433058,9.26479034301787
0.22,6.15458998309558,280.981437639221,282.401425243846,0.0226470302037536,1.71047560272676,1.69701790809631,-0.749939436064213,9.12609113342018
0.23,0.165682662279327,280.982944594698,282.401425243846,0.00169152597464428,1.71568358980633,1.71337676048279,-0.623603397338327,9.20417857250363
0.24,0.459967192350921,281.015770816937,282.401425243846,0.129749817733304,1.81149336882793,1.8011656999588,-1.400177192757,9.1624178329345
0.25,0.754251784438071,281.004349291887,282.401425243846,0.00253551596698676,1.85502893243895,1.76946783065796,-0.6240963891603,8.71392306486144
0.26,1.04854717728262,281.004782767996,282.401425243846,-0.012784415861688,1.81956679435931,1.7746479511261,-0.526504250763558,8.94560149696168
0.27,1.34284408035495,280.981310442975,282.401425243846,0.00997705527596097,1.72182741191523,1.7086238861084,-0.687104931654382,9.12199576700086
0.28,1.63712923401527,281.026293785202,282.401425243846,0.0965160987759807,1.80808273504073,1.74921429157257,-1.21367716919757,8.85172117335175
0.29,1.93141311471253,280.997187991613,282.401425243846,0.0558682470142249,1.69838910099651,1.65441966056824,-0.9902682815166,8.94795305926784
0.3,2.22570556203637,280.937217994389,282.401425243846,0.000469138996389007,1.70338221593176,1.61834061145782,-0.6633692421786,8.69182870813179
0.31,2.52000348858452,281.009620722551,282.401425243846,-0.00465895437526065,1.68270359210339,1.65626609325409,-0.619254596342259,9.02883476084954
0.32,2.81429176457029,280.934086991676,282.401425243846,0.0708487220457926,1.56185904970101,1.48179864883423,-1.08880764054227,8.70992836454226
0.33,3.10857143501861,280.998722037909,282.401425243846,-0.0180883765158557,1.55329041240312,1.46389901638031,-0.546408223491448,8.66295613582023
0.34,3.40285444605476,281.014466847323,282.401425243846,-0.0246605718393947,1.54708987696469,1.5015310049057,-0.540392866554972,8.93278017659751
0.35,3.69713286458774,281.064672259898,282.401425243846,-0.0507997631585254,1.61715560908234,1.66339218616486,-0.385321703248277,9.49923899274972
0.36,3.99141855892028,281.073028370327,282.401425243846,0.00606517361256054,1.71444905971639,1.70319211483002,-0.722501239134309,9.15498119265631
0.37,4.28570907569864,281.134996071686,282.401425243846,-0.13159346614786,1.70292394178803,1.72275769710541,0.128856076413498,9.33775399826659
0.38,4.57999454456903,281.143838010255,282.401425243846,-0.0184119740272761,1.71653314888935,1.74087798595428,-0.558116926460465,9.36456629105077
0.39,4.87428623069438,281.171858891475,282.401425243846,0.000879492206077193,1.64676076018041,1.71202552318573,-0.67111511049596,9.59776998999291
0.4,5.1685812350495,281.134777954595,282.401425243846,-0.00818501900647757,1.61526221296819,1.68913507461548,-0.618369622382319,9.63345004463394
0.41,5.46286551432572,281.17470287465,282.401425243846,0.0391263249202706,1.63553332023679,1.66098284721375,-0.909561387768721,9.34355827961851
0.42,5.75714700597278,281.056905845798,282.401425243846,0.0244184735908574,1.53001425035815,1.69723725318909,-0.805179732087664,10.2011895671573
0.43,6.05143292156086,281.021100572688,282.401425243846,0.126364508610672,1.66810989356679,1.69067430496216,-1.40110337815412,9.3339651411179
0.44,0.0625258085188545,281.048494659882,282.401425243846,0.103027928390478,1.53644396701307,1.63305127620697,-1.27435855395249,9.79191354495933
0.45,0.35681742272916,281.099108362628,282.401425243846,0.0337055906203753,1.62567830242713,1.70643198490143,-0.842187767267944,9.68148823502289
0.46,0.651107932208424,281.0128197552,282.401425243846,-0.0386268509125572,1.69783494945529,1.70336949825287,-0.394857464328035,9.2166510900893
0.47,0.945405872928685,281.02014278181,282.401425243846,0.00397513570678698,1.72811478651122,1.72503519058228,-0.658976076284662,9.14482161908155
0.48,1.23969325310052,280.98339949228,282.401425243846,0.0204765058978353,1.63491835606517,1.72664725780487,-0.756316257959099,9.71127318474739
0.49,1.53397160346244,281.063048817924,282.401425243846,0.000125576835760477,1.67084848198297,1.7188423871994,-0.642471924863322,9.46274806318182
0.5,1.82825889602837,281.071423964263,282.401425243846,-0.0388340550737012,1.78418392579034,1.73696255683899,-0.416625846341506,8.89783679023626
0.51,2.12253726671713,281.011426570917,282.401425243846,0.054009322795721,1.741841047544,1.7216374874115,-0.96833196724921,9.07524392294106
0.52,2.4168203062043,281.046725583193,282.401425243846,0.0178637093520055,1.77036584822069,1.72900819778442,-0.754883244666047,8.95639572012756
0.53,2.71110349455318,281.008295931302,282.401425243846,0.0609267000104264,1.73370495860621,1.72998809814453,-1.03387643304103,9.19475371831184
0.54,3.00539373169417,281.025144166695,282.401425243846,-0.0393685515785586,1.84648854662966,1.78611540794373,-0.44272170777488,8.84621298139957
0.55,3.29968724776182,280.970109425883,282.401425243846,0.0801406597999463,1.74475753248449,1.76616072654724,-1.14806892477585,9.32818527814053
0.56,3.59396631680599,281.016061753049,282.401425243846,0.0473884621701028,1.80229930919561,1.79873418807983,-0.927086081998634,9.19244631689212
0.57,3.88825934856975,281.0243507388,282.401425243846,-0.0581300719182417,1.81864718815735,1.75840961933136,-0.26762344146667,8.84525504738874
0.58,4.18253944684161,281.022752071472,282.401425243846,0.015025183978812,1.87261583806938,1.84570169448853,-0.702993801076173,9.05123072218604
0.59,4.47684372501546,280.98450327634,282.401425243846,-0.0609897882600927,1.7801014711899,1.73708605766296,-0.260050508737883,8.93329972612446
0.6,4.77113181665204,281.02647355817,282.401425243846,-0.043111562118802,1.81467906525142,1.73569464683533,-0.368152010891132,8.71968293086906
0.61,5.06542357100986,281.011362110404,282.401425243846,-0.0329011094195077,1.71043130409738,1.6384608745575,-0.434905810225155,8.76093943313813
0.62,5.35972449457537,280.958160627868,282.401425243846,-0.0381202415467984,1.62186057873718,1.61825788021088,-0.397592093288301,9.15516902929575
0.63,5.65401121243321,281.053168572176,282.401425243846,-0.0273192222484095,1.6961132930687,1.65010857582092,-0.478085744418305,8.9048396341521
0.64,5.94829414194507,280.983693579536,282.401425243846,0.0350411047130671,1.59706585025651,1.58731389045715,-0.853287116063876,9.12562179021237
0.65,6.24257633372501,281.054289313181,282.401425243846,-0.0716003445895479,1.57869992850634,1.55810034275055,-0.206832505683631,9.07229509073282
0.66,0.253681016095022,281.071152013418,282.401425243846,0.0456753736716252,1.60106912458174,1.61551487445831,-0.950762293959209,9.27640108522231
0.67,0.547970335937425,281.016004204974,282.401425243846,-0.0978863810418438,1.55021764709431,1.59445369243622,-0.0809683576248414,9.45117422408357
0.68,0.842252902836837,281.096402906125,282.401425243846,0.0455562950300242,1.62235302788172,1.67987132072449,-0.932860574441729,9.5369025277589
0.69,1.13653375115763,281.189901106542,282.401425243846,-0.0440814811497607,1.60866374466276,1.64596045017242,-0.378826015337172,9.42415490022591
0.7,1.43081347172607,281.115712646198,282.401425243846,-0.105126115665864,1.56709486982161,1.67006528377533,-0.00489189044145411,9.82291825710015
0.71,1.72509676170427,281.155172726535,282.401425243846,0.00962006296551154,1.64932729323946,1.72476994991302,-0.693794140649991,9.65969179653325
0.72,2.01938427687371,281.069234465318,282.401425243846,0.116339368820519,1.51943606037186,1.62263572216034,-1.32348546016574,9.81771469989802
0.73,2.31367314322799,281.068438747128,282.401425243846,0.0313813150895761,1.5096070582219,1.67237222194672,-0.799154231985021,10.1738802329212
0.74,2.60796162733309,281.064271101722,282.401425243846,-0.0377102510052016,1.58738848018068,1.65512752532959,-0.373917674021565,9.59978913967598
0.75,2.90225040749347,281.088386117462,282.401425243846,0.0397735415645659,1.61391515646892,1.6916755437851,-0.833219793357541,9.6555822849891
0.76,3.19654681483605,281.067426107306,282.401425243846,-0.00393863617043022,1.63564613208015,1.71347665786743,-0.599838488420805,9.64144134203188
0.77,3.49083443733195,281.003673756283,282.401425243846,0.0682323874702071,1.6498485111901,1.68672454357147,-1.0266551810709,9.39004138526077
0.78,3.78511953076643,281.034885697143,282.401425243846,0.011493305339655,1.66325916508717,1.72860217094421,-0.689474988367593,9.56953088810304
0.79,4.07940485419828,281.062472136131,282.401425243846,0.0748267980326459,1.7592721888117,1.7847295999527,-1.08326952249194,9.33557208688458
0.8,4.37369353243231,281.0545194585,282.401425243846,0.100335390172082,1.75705861138256,1.75547087192535,-1.26925114281748,9.17786435961478
0.81,4.66797006481438,280.98300599971,282.401425243846,0.0489392093546802,1.60573139011383,1.65243327617645,-0.931405690500572,9.48066303912161
0.82,4.96225267009786,280.990195548019,282.401425243846,0.0709618989053522,1.72799677562628,1.73534417152405,-1.07460161398113,9.25057258448728
0.83,5.2565487133097,281.030108331554,282.401425243846,0.0223854450346423,1.74845983980124,1.73756611347198,-0.768380038879384,9.1298767538873
0.84,5.5508320066861,280.971049700554,282.401425243846,-0.0206755909774059,1.71211984510586,1.70701992511749,-0.504853837282788,9.16978135948087
0.85,5.84512405102707,280.979892659237,282.401425243846,0.080476406401184,1.78179198410374,1.72202372550964,-1.12227985508413,8.83766819588254
0.86,6.13941421180035,281.005286183726,282.401425243846,0.00294538310236392,1.85381104196952,1.77002131938934,-0.657695585397356,8.68803344634624
0.87,0.150520193271401,280.980553959421,282.401425243846,-0.0134900079469028,1.79171858499602,1.80878233909607,-0.573318233429508,9.28728968580871
0.88,0.444809631560197,280.94116569188,282.401425243846,-0.0151515590153036,1.71199621993701,1.71301651000977,-0.535446735832402,9.19346087824078
0.89,0.739100999058792,280.94927725989,282.401425243846,0.103839707884702,1.65328689274134,1.59008347988129,-1.23697904887835,8.80432725825377
0.9,1.03337510224207,281.019361798801,282.401425243846,0.012130281443185,1.7614739346886,1.70284914970398,-0.695219315066373,8.8518374099337
0.91,1.32766162204769,280.971981593391,282.401425243846,0.0208813309350298,1.71654337938211,1.63393449783325,-0.764797426968482,8.70530520984319
0.92,1.62196191586711,280.942389995291,282.401425243846,0.062350742216254,1.6096140731787,1.50883328914642,-1.01034943317001,8.58034242320107
0.93,1.91624050530604,281.012725660717,282.401425243846,0.0261210194720681,1.61740707195873,1.52873766422272,-0.794096588369434,8.66462271412627
0.94,2.21053413491752,280.962495153788,282.401425243846,0.00438722644368184,1.5964516171404,1.56544375419617,-0.659869836839634,9.0017020607879
0.95,2.50483340514671,280.931886897191,282.401425243846,-0.102181358346846,1.39778476834406,1.42049217224121,-0.0448561370613306,9.31089516326943
0.96,2.79910712229926,281.03018519116,282.401425243846,0.0406282814158537,1.61102445937993,1.5730265378952,-0.908755967182558,8.96526873314881
0.97,3.09339155712395,281.114576606498,282.401425243846,-0.0200246216086773,1.63647554235485,1.66124439239502,-0.542820093566091,9.35210104774582
0.98,3.38767561643007,281.07223318904,282.401425243846,-0.056508801703688,1.60849819363001,1.69772469997406,-0.318212367302613,9.74587868867126
0.99,3.68197124907147,281.152201192528,282.401425243846,-0.00223369501302162,1.61979226188034,1.64929282665253,-0.661709402377884,9.37711958339368
1,3.9762587517992,281.103551692789,282.401425243846,-0.037053698126399,1.50971407575696,1.59399580955505,-0.450355455940473,9.70693388864716
1.01,4.27052694841527,281.144562117925,282.401425243846,-0.0186430230263335,1.619183013132,1.68912422657013,-0.567910200114605,9.64432721884046
1.02,4.5648134777439,281.0754066458,282.401425243846,0.0737695231152272,1.63308376949432,1.70765101909637,-1.11687153907102,9.66562105798952
1.03,4.85910459837331,281.074539254918,282.401425243846,0.143927328446364,1.63685656757333,1.68157625198364,-1.56002028881947,9.47400659950554
1.04,5.15339299509652,281.055516877134,282.401425243846,0.100137012238831,1.64217500690898,1.66444444656372,-1.28390146884374,9.33217940466272
1.05,5.44767532634083,281.1352210769,282.401425243846,-0.0479375485187581,1.77123108824136,1.80060613155365,-0.387928847409435,9.38361985319252
1.06,5.7419604636676,281.102708558221,282.401425243846,0.00481190204210247,1.70585274092861,1.77674460411072,-0.716571525231119,9.62956239379224
1.07,6.03626405844653,281.06319442764,282.401425243846,0.0252417756984129,1.62374021815482,1.73865568637848,-0.839017138370461,9.86820240232043
1.08,0.0473654315350309,281.016809444225,282.401425243846,0.0514774721016708,1.62759296725301,1.70268964767456,-0.956007894736479,9.62865520513186
1.09,0.341648514287328,280.99803630983,282.401425243846,0.00658723630260161,1.75708403493954,1.73361444473267,-0.64628067802483,9.04609801974934
1.1,0.635932365112154,281.063624945985,282.401425243846,-0.00580030292761136,1.67205986196506,1.71849262714386,-0.562246721553756,9.47199325289463
1.11,0.930206925734666,280.976764692776,282.401425243846,-0.0109001571971291,1.74611304114903,1.7439523935318,-0.549401822139294,9.20061488606343
1.12,1.22449211480732,281.054653985817,282.401425243846,0.0192388310939693,1.77682406047163,1.73743462562561,-0.718998855782809,8.97745990543842
1.13,1.51878504622706,281.034092447474,282.401425243846,-0.00444792465877619,1.82412080360004,1.75697755813599,-0.56726578928673,8.79314969930794
1.14,1.81307195902189,281.034168524433,282.401425243846,0.107945117808929,1.77094400550373,1.78139841556549,-1.23545017650601,9.26229243741503
1.15,2.10735551208,280.975575684555,282.401425243846,0.0769864877785967,1.80026419846616,1.80974888801575,-1.08404007865871,9.26197649191648
1.16,2.40164117336002,280.992203842227,282.401425243846,0.0203139956121966,1.80488466040947,1.81300950050354,-0.74230273280868,9.25643411672648
1.17,2.69592370694873,280.986553960332,282.401425243846,0.0601488090841121,1.87742551482415,1.87957036495209,-0.979564463870681,9.22811800631642
1.18,2.990215870905,280.930337649388,282.401425243846,0.1018157698454,1.75159889484575,1.72890532016754,-1.25606301405608,9.07543814533428
1.19,3.28451257704341,280.996289236172,282.401425243846,-0.0862934241985638,1.7528223641122,1.68975496292114,-0.13812681007115,8.81971762169925
1.2,3.57881665436668,280.924811859287,282.401425243846,0.0360132387988656,1.68621647461532,1.67467820644379,-0.872977383217986,9.1077830351935
1.21,3.87310673048955,280.999857834602,282.401425243846,-0.0683365276851042,1.67427165326976,1.6528491973877,-0.246051287274471,9.04447069818018
1.22,4.16739069095954,280.99119042534,282.401425243846,0.0182800717693755,1.68073673055894,1.67119526863098,-0.742982098347561,9.12011158203866
1.23,4.46168145647786,280.908907980612,282.401425243846,-0.0696900980698041,1.56124584394115,1.53597688674927,-0.234792850953859,9.02314140692786
1.24,4.75596561802144,281.014814808997,282.401425243846,0.00998719372634055,1.61543114792415,1.62055897712708,-0.742996429815677,9.21114543434425
1.25,5.05025968328263,280.999178478858,282.401425243846,-0.10028432052758,1.53193725785113,1.49658691883087,-0.087174558748269,8.96339136568439
1.26,5.34454342563563,281.031611230287,282.401425243846,-0.0132581114576826,1.61752335560907,1.66158711910248,-0.605672129092021,9.44173705957916
1.27,5.63881494627964,281.028491827957,282.401425243846,-0.0510669982266975,1.58196665929571,1.60468673706055,-0.36234344176257,9.33402719623399
1.28,5.93309305783254,281.055068937957,282.401425243846,-0.032071723341607,1.57022801653582,1.62093257904053,-0.481696093455482,9.51699055924426
1.29,6.227386782983,281.130656990371,282.401425243846,0.0569583589620174,1.57297280994178,1.59009289741516,-1.00866461698701,9.30668146402358
1.3,0.238469603893392,281.143415777999,282.401425243846,0.00754953404152417,1.61710069238013,1.69215440750122,-0.736100577046604,9.68157691873418
1.31,0.532744584725066,281.264294591114,282.401425243846,-0.093739354563383,1.66631996437593,1.7411230802536,-0.154691214196931,9.69275027271907
1.32,0.827026988908443,281.150873718479,282.401425243846,0.0142493914467593,1.63563424409701,1.66674327850342,-0.788025353522621,9.43080111327601
1.33,1.12131637634432,281.13573031094,282.401425243846,-0.0408270534424872,1.56737982368837,1.66221284866333,-0.419026846285937,9.80962573930618
1.34,1.41560652893872,281.117345238145,282.401425243846,0.0449181803060826,1.52811609402414,1.68482708930969,-0.920836623228887,10.1767335251455
1.35,1.70989763250461,281.186322355733,282.401425243846,-0.0227022923493374,1.67690052479496,1.74002873897552,-0.488472660106188,9.60533171915036
1.36,2.00419196198073,281.008345842277,282.401425243846,0.0088232519900083,1.52525968402863,1.62217664718628,-0.678461803401442,9.80020018040357
1.37,2.29848354967384,281.044190445337,282.401425243846,0.00427174212395931,1.65537048271977,1.69889974594116,-0.646790448903035,9.46943397123429
