t,theta,omega,r,i_d,i_q,i_q_ref,v_d,v_q
0,0,0,311.445890996013,-2.27657594853195e-24,0,0,0,0
0.01,0.0663428249665625,129.994069505332,311.445890996013,0.134255339604314,7.6067568209248,10,-0.92519108423916,18.1166998628656
0.02,0.270311647043781,256.881209598479,311.445890996013,0.19438599050561,7.68690934300718,10,-1.62376525248399,21.0446660114264
0.03,0.5822557371925,309.254788693442,311.445890996013,-0.0661666366880117,1.01662052075833,0.905489861965179,-0.31376978244619,7.93129530104796
0.04,0.906636089207915,309.760830671988,311.445890996013,-0.0253408153817576,1.98035429220086,2.04016065597534,-0.562345947554603,9.24199184727982
0.05,1.2311167421428,309.906574929519,311.445890996013,0.0860934506295311,1.98329035381126,2.03791260719299,-1.24294294417091,9.33867129478167
0.06,1.55559810778802,309.924750889671,311.445890996013,0.102151586720419,1.83909515489026,1.95215237140656,-1.36554795534722,9.81965275593273
0.07,1.88008918610266,309.924239566622,311.445890996013,-0.0631614826918884,1.75062382045226,1.86015915870667,-0.413938517551304,9.92607954691407
0.08,2.20462583541655,309.932091157875,311.445890996013,-0.0692801263034923,1.82244432987456,1.78478670120239,-0.365335012245836,9.08356501212804
0.09,2.52914533811582,309.852795679784,311.445890996013,-0.007844310693228,1.91371145100937,1.83515667915344,-0.722974832953029,8.89547234569387
0.1,2.85367653135852,309.801964717075,311.445890996013,0.10748499768447,1.97618329759924,1.9820009469986,-1.4230782893444,9.42692897023859
0.11,3.17819069201409,309.88602936068,311.445890996013,0.0986735940369392,2.09763848614578,2.2388699054718,-1.3886332351635,10.305543577114
0.12,3.50273095452775,310.02095939178,311.445890996013,-0.0385055331645578,1.80217667235268,1.91011643409729,-0.592359740863417,10.1389636666689
0.13,3.82727274200077,310.029513947224,311.445890996013,-0.0366442700756368,1.65151201020257,1.72535181045532,-0.598701491294544,9.97658052638278
0.14,4.15182051829141,309.850883203485,311.445890996013,-0.10975459571549,1.66547136974144,1.57577180862427,-0.151674774216313,9.01224585561444
0.15,4.47635513251994,309.931177800717,311.445890996013,-0.0352525324686513,1.9340460929627,1.81010258197784,-0.59614169745868,8.83031066594344
0.16,4.8008966329539,309.859666918177,311.445890996013,0.0414178961805614,2.00388792662401,1.9835045337677,-1.07772592814894,9.46176218827031
0.17,5.12544626201879,309.972176438934,311.445890996013,0.084453988239776,1.95263568010047,1.92574691772461,-1.32542962533333,9.42811794788895
0.18,5.44999998859841,310.074791015977,311.445890996013,-0.0303788198224945,1.89954172283499,1.97968471050262,-0.63716814553664,10.0778373877978
0.19,5.77456615037177,309.991096097958,311.445890996013,-0.00570455847745577,1.75157979081253,1.75725173950195,-0.790389857559261,9.63090995912443
0.2,6.09912956613654,309.857904360459,311.445890996013,-0.0581142391482432,1.71809444940647,1.62004685401917,-0.462518919131005,9.0002169832094
0.21,0.140486166965808,309.946637458916,311.445890996013,-0.00950047743201499,1.87916048742779,1.79105508327484,-0.744603500843009,9.07555325507483
0.22,0.46504774709665,309.92116386714,311.445890996013,0.0663259266013332,1.93226701911373,1.88857793807983,-1.20183408897927,9.31898296811238
0.23,0.78957792244531,309.901180125166,311.445890996013,0.129718575876933,2.07486520430684,2.18306994438171,-1.57534578621372,10.2609782263746
0.24,1.11413339063831,310.027068978354,311.445890996013,-0.0660292504997933,1.69819640716473,1.82157099246979,-0.425071426148183,10.3626935444806
0.25,1.43871003594175,310.096993488863,311.445890996013,-0.0621002769636304,1.85790441350047,1.86010706424713,-0.449003550406349,9.61072741231694
0.26,1.76325780857109,309.836284342089,311.445890996013,-0.0705487025469304,1.71245937858676,1.59291458129883,-0.393219950204399,8.89660871095692
0.27,2.08780577772984,309.835656121336,311.445890996013,-0.0513640368295781,1.9130880555197,1.80755293369293,-0.486375016890595,8.98249736287953
0.28,2.41234848070211,309.802196639999,311.445890996013,0.00272776136511432,1.98701432641376,1.95665550231934,-0.815869173419895,9.44247740455497
0.29,2.73691460194765,310.002014732776,311.445890996013,0.074890915113898,1.87029239629786,1.91307997703552,-1.27228307736668,9.85638160340488
0.3,3.06147259293933,310.07679125619,311.445890996013,0.0921403404097887,1.8234553658466,1.9049596786499,-1.38200050487938,10.0917428559031
0.31,3.38605734535409,310.034270385068,311.445890996013,-0.124433770832027,1.70121122298678,1.71432340145111,-0.0965844372232493,9.65181303604824
0.32,3.71062850699837,309.833120936283,311.445890996013,-0.0869821767308144,1.75317946539793,1.69631159305573,-0.298539860303408,9.20346068429316
0.33,4.03516658737008,309.840999376809,311.445890996013,0.0690501400989795,1.93597193980175,1.83972334861755,-1.24326492837631,8.98323479459612
0.34,4.35970306390062,309.904890719714,311.445890996013,0.0732274628352448,2.02480161785545,1.99162638187408,-1.26611209414329,9.38149556218086
0.35,4.6842437378513,310.051116360231,311.445890996013,0.126498891767853,2.02565089821199,2.06448864936829,-1.59189553694355,9.83266346663391
0.36,5.00879272681212,310.073115915189,311.445890996013,0.048317033189333,1.79485427815646,1.82340240478516,-1.1403646069564,9.79269381151059
0.37,5.33337855161212,310.038328852856,311.445890996013,-0.106054612647901,1.77997744580309,1.80832636356354,-0.209147876546113,9.75617665489445
0.38,5.65794615347781,309.884850696103,311.445890996013,-0.0567361576675023,1.76422039543552,1.70662200450897,-0.493311884949677,9.21890789798588
0.39,5.98248515957841,309.745782019441,311.445890996013,0.0442934504709713,1.92043518132694,1.90292298793793,-1.09516341844061,9.4702878868034
0.4,0.0238537015788332,309.853420376298,311.445890996013,0.0365664507390405,1.99703930541014,1.92714154720306,-1.04186410546675,9.14565063895897
0.41,0.348407058931631,310.059208548991,311.445890996013,0.124591479675292,2.02613495882778,2.04828643798828,-1.56392725711048,9.69724542569109
0.42,0.672959619423928,309.976209127266,311.445890996013,0.0117140518533236,1.67395487903389,1.74401271343231,-0.887107271460937,10.0042185379387
0.43,0.997520982848449,309.886573200659,311.445890996013,-0.13352250281796,1.62109906930464,1.6036012172699,-0.0141358402977007,9.48708538246695
0.44,1.32204781731398,309.866638221334,311.445890996013,-0.0240993853150808,1.80425773926557,1.70645391941071,-0.667951207529781,9.05643568697694
0.45,1.64660291486182,309.792544982823,311.445890996013,-0.0343588443405412,1.93643290019169,1.8744809627533,-0.611031724099163,9.25898373691792
0.46,1.97116235458993,309.93769790852,311.445890996013,0.109152138848485,2.03130919311646,1.98379230499268,-1.47878098091942,9.33018079330037
0.47,2.29571683270303,310.031011721546,311.445890996013,0.100819066675329,2.12817064056635,2.17616391181946,-1.44492585015865,9.90059091555691
0.48,2.62026418914251,310.104377321707,311.445890996013,0.0253243899885449,1.80115318550669,1.79664373397827,-1.00444468992206,9.61391425155057
0.49,2.9448318871862,309.994000092513,311.445890996013,-0.0379888231563637,1.74961755137589,1.70681810379028,-0.605997974314964,9.37900057809729
0.5,3.26940470673192,309.833068274483,311.445890996013,-0.0231823468598505,1.75624993394636,1.65989995002747,-0.708089160697924,9.02611669240551
0.51,3.59392977882984,309.877177660659,311.445890996013,0.0114815856435214,1.96708854665036,1.87910032272339,-0.889703358994292,9.11876275909633
0.52,3.91851010171769,309.903660638475,311.445890996013,0.100154444514075,1.9310534284339,1.86172080039978,-1.42254316906128,9.17405902855527
0.53,4.24303060552364,310.169993706806,311.445890996013,-0.00860423846407571,2.03883306411717,2.06262898445129,-0.788920268587734,9.79614854010481
0.54,4.56758455848123,310.153435940304,311.445890996013,-0.0100348232405705,1.75195887691053,1.71888029575348,-0.789935274271228,9.47587024469346
0.55,4.89214172971682,310.01033249673,311.445890996013,-0.0652257874013522,1.76476264678386,1.74458920955658,-0.459969442336398,9.56337340828843
0.56,5.21671713338278,309.838085907401,311.445890996013,-0.0746718794105162,1.80231720382124,1.72133815288544,-0.397668290187385,9.15851815506497
0.57,5.5412421882249,309.860728382801,311.445890996013,0.0708261657405588,1.98840944971978,1.97075462341309,-1.26885645049274,9.57534166762053
0.58,5.86582222939746,309.89181884105,311.445890996013,-0.019983022067681,1.93355724188911,1.93255364894867,-0.701241985566129,9.62258061935785
0.59,6.19040402041388,310.118617530208,311.445890996013,0.0869016450506407,1.92882858719888,1.97754848003387,-1.32208641357921,9.88563590068818
0.6,0.231775405636217,310.137099142891,311.445890996013,-0.0942035272796185,1.71281667710674,1.76640713214874,-0.232033735311085,9.93047837810143
0.61,0.556340831491859,310.033955848859,311.445890996013,-0.0527230400112707,1.806995167245,1.79044485092163,-0.490848322515306,9.50444480782392
0.62,0.880919430421024,309.912400913657,311.445890996013,-0.0277750973379116,1.87577995590152,1.73381614685059,-0.647245929137567,8.7057086615166
0.63,1.20548132196718,309.906354841601,311.445890996013,-0.0437337209196773,1.98881316626136,1.88757073879242,-0.534107720788029,8.92785540273744
0.64,1.53004358733509,309.955873863967,311.445890996013,-0.0023291321167922,1.91587557966889,1.92592620849609,-0.786426361688999,9.57729363627202
0.65,1.85457299596949,310.136832077533,311.445890996013,0.14837603707645,2.00848077543057,2.07904863357544,-1.70184800490356,9.98991499846555
0.66,2.17913434037441,310.017487686905,311.445890996013,-0.022365177646995,1.73360835693017,1.77992391586304,-0.682327439111051,9.85361181779517
0.67,2.50371506956864,309.93919617378,311.445890996013,-0.0319133355200922,1.77543513348616,1.75373697280884,-0.614655746748916,9.41950238330954
0.68,2.82825350815607,309.883549143337,311.445890996013,-0.0372431958864534,1.83625430364172,1.76377356052399,-0.576443162174076,9.13766744728693
0.69,3.15280341857848,309.713029017096,311.445890996013,0.0878227380143416,1.94126500285815,1.95198976993561,-1.32288719506348,9.6245303211899
0.7,3.47733567483365,309.989384223167,311.445890996013,0.0744011659327557,2.07597016701165,2.03749895095825,-1.24723456467555,9.36733738588711
0.71,3.80191705145755,310.045817080081,311.445890996013,0.0891119781208596,1.82445856000853,1.95846784114838,-1.32825215486003,10.3664481308525
0.72,4.12648547035094,310.049509345142,311.445890996013,-0.0266138767877736,1.77245078042907,1.82627642154694,-0.643535815644565,9.87852318886475
0.73,4.45106360469674,309.927832543789,311.445890996013,-0.066657764290722,1.73890238040658,1.69620776176453,-0.387660047133116,9.2685678272618
0.74,4.77562132026682,309.925371998115,311.445890996013,-0.0102463815082868,1.90054736742599,1.76821196079254,-0.737316989229537,8.71997489779671
0.75,5.10015038729043,309.771022094908,311.445890996013,0.0562354413168483,1.96699038896236,1.96279680728912,-1.14406312901141,9.52789651166067
0.76,5.42468496818316,309.887984509981,311.445890996013,0.0448460126541867,2.08386763241303,2.17242193222046,-1.09022694911054,10.1089303961556
0.77,5.74924149900927,310.044807143065,311.445890996013,0.063795280093181,1.8070731176232,1.85983765125275,-1.19660619396706,9.89739927685047
0.78,6.07381427009534,310.099424214561,311.445890996013,-0.0787416741965497,1.83765182251747,1.83717381954193,-0.363555487105817,9.563856808762
0.79,0.115172982164388,309.88100751081,311.445890996013,-0.115460070567651,1.75847319026911,1.65344822406769,-0.123001960733713,8.96692439727618
0.8,0.439737525857161,309.847011350584,311.445890996013,0.0344547315551179,1.88548476497261,1.74089908599854,-1.0289985063767,8.70377690289864
0.81,0.764278168176908,309.791614645578,311.445890996013,-0.0297801314034193,1.98048969174807,1.94673013687134,-0.643184178484434,9.3750555044924
0.82,1.08882821952098,310.028571006057,311.445890996013,0.0968216020589814,2.01044307452956,2.00798487663269,-1.39896107596936,9.57076564562291
0.83,1.41337841689552,310.138472036136,311.445890996013,0.00959934979392574,1.89788630912626,2.00320720672607,-0.868345820358759,10.2351802685881
0.84,1.73795108196446,310.0862443062,311.445890996013,-0.109918131232714,1.79600785337343,1.85078120231628,-0.149966833491228,9.92237703619983
0.85,2.06252293095514,309.975374885468,311.445890996013,-0.00859010160722129,1.82103923386864,1.75747776031494,-0.757490611264466,9.18569107052723
0.86,2.38708599048502,309.823258459325,311.445890996013,-0.0442379172565212,1.92447561925599,1.86940860748291,-0.553293189115235,9.2137013060899
0.87,2.71163961866058,309.790833051337,311.445890996013,0.00983281973259253,1.98012890428774,1.94836831092834,-0.883931306986317,9.34059504966551
0.88,3.03617833704937,309.993370949376,311.445890996013,0.0501389324158565,2.11079569054679,2.11635041236877,-1.12462889434408,9.58624049760625
0.89,3.36072021998159,310.035270381981,311.445890996013,-0.00402850861011288,1.68203973244517,1.83429849147797,-0.794217608626677,10.5105366611131
0.9,3.68528701464292,310.042518309898,311.445890996013,-0.108553833211567,1.66189413461619,1.6591089963913,-0.166834233629337,9.57972173334862
0.91,4.00985885385473,309.834868555974,311.445890996013,-0.0584457546889331,1.72077668820188,1.63694202899933,-0.457255887537466,9.06897248836954
0.92,4.33440176551387,309.726769846437,311.445890996013,-0.0061821961450802,1.90734768982175,1.88166093826294,-0.776985935909358,9.427316060751
0.93,4.65895234229944,309.896775224448,311.445890996013,0.104946378675138,2.01639294017349,1.98342967033386,-1.45575981959241,9.38025852083585
0.94,4.98351288611736,309.970626676521,311.445890996013,0.115161747440157,1.83019385802964,1.88475155830383,-1.51128989624004,9.90033760143193
0.95,5.30805584320857,310.216784521911,311.445890996013,0.0445265984463041,1.91217227990767,1.98516523838043,-1.09072696836428,10.0437405976149
0.96,5.63259633528557,310.019982352599,311.445890996013,-0.0922598382769211,1.72688237437174,1.71986985206604,-0.282113920335217,9.60813320650056
0.97,5.9571741892916,309.903296472395,311.445890996013,-0.0236994257658341,1.73579154323205,1.69422495365143,-0.708280826108924,9.36095148306483
0.98,6.28169048674616,309.691086622636,311.445890996013,0.0364879628119341,1.92714580094253,1.98356819152832,-1.05918593024464,9.9996143020793
0.99,0.323067111877616,309.957893173181,311.445890996013,0.055464384685797,2.03416508236596,1.94640612602234,-1.16677708442715,9.11619408420044
1,0.647651186555741,310.052970490074,311.445890996013,0.073840491132829,1.97628421457965,1.97947704792023,-1.28349940396961,9.61267493860323
1.01,0.972232308269028,310.013977852559,311.445890996013,0.0450251660104756,1.68079216821124,1.74841725826263,-1.1198445758272,9.96870679060666
1.02,1.29679344634739,310.017604257404,311.445890996013,-0.131396714734194,1.69256865934975,1.75249183177948,-0.0525369732302191,9.9324918216851
1.03,1.62138383259027,309.80031675601,311.445890996013,-0.0175234643091385,1.5004972562503,1.41967296600342,-0.731823434485737,9.03590589202484
1.04,1.94589931167275,309.666169256295,311.445890996013,-0.0427430141447269,1.91851790794695,1.95715808868408,-0.556889839623552,9.80607436889295
1.05,2.27043856202823,309.937957682397,311.445890996013,0.104360706300187,1.94050289998367,1.87794661521912,-1.44387471069946,9.22462479664547
1.06,2.59499159896131,310.010254736356,311.445890996013,-0.00302860241144731,1.86964546264756,1.93734955787659,-0.795624700698739,10.0120674488643
1.07,2.91955550677728,310.206003905596,311.445890996013,0.0319756222848279,1.84208573642622,1.84648513793945,-1.02162305290235,9.63635871107415
1.08,3.24409444237747,310.010557797307,311.445890996013,-0.00910769005994549,1.72638448719122,1.71461009979248,-0.771751432051114,9.58316965627587
1.09,3.56865894982767,309.952503533786,311.445890996013,-0.0278198425853161,1.90316438837797,1.77048993110657,-0.651524940919653,8.82931833690388
1.1,3.89322150737913,309.812322316649,311.445890996013,0.0196905168240467,1.94947021670226,1.89682865142822,-0.938466028775676,9.28141934181744
1.11,4.21777894419383,309.943959011091,311.445890996013,0.0792788377732683,1.96774525260133,1.94141721725464,-1.31546785032837,9.42898211911996
1.12,4.54231113122434,310.117577659043,311.445890996013,-0.000181477626644,1.96360388978251,2.02941036224365,-0.83474509359124,10.0245856935443
1.13,4.86686582199734,310.049195627646,311.445890996013,0.00131372790104778,1.71031349787198,1.68850696086884,-0.849112270278368,9.51703912159741
1.14,5.19143889288133,309.91459133924,311.445890996013,-0.0796195361824381,1.71355406354949,1.66259109973907,-0.358272730463367,9.31933640863112
1.15,5.51601025197441,309.901937744263,311.445890996013,-0.00789753163455298,1.8362084029497,1.71219289302826,-0.785055029587361,8.85089554198131
1.16,5.84057317504527,309.822377775518,311.445890996013,0.0332411626881063,1.97074500500391,1.95266604423523,-1.03032183175322,9.46016644239566
1.17,6.16514102927799,309.967301577019,311.445890996013,0.107283698818365,1.95317685595527,1.89468252658844,-1.46168481004467,9.18898477001032
1.18,0.206526964443782,309.945737167977,311.445890996013,0.0805718449310713,1.77753689167375,1.85309422016144,-1.30777305409041,9.97114783363902
1.19,0.531060832576152,310.03907326512,311.445890996013,-0.00467411381701355,1.73619316859271,1.76977264881134,-0.796006738850438,9.77498181458607
1.2,0.855621518790699,309.871170440511,311.445890996013,-0.0460531155263404,1.67367565257154,1.59223461151123,-0.551252160244296,9.08709888456491
1.21,1.18015379893233,309.901491325275,311.445890996013,-0.0329898404533471,1.83431532752602,1.74219536781311,-0.627991754034294,9.05682763392147
1.22,1.50472151162846,309.741095081124,311.445890996013,-0.0569432949460278,1.9523946355502,1.94825220108032,-0.4820607426807,9.55426788308301
1.23,1.82928598085906,309.958211598239,311.445890996013,-0.00599096080044098,1.91508358118882,1.91912972927094,-0.793350179789153,9.58151219331805
1.24,2.1538190327967,310.1370495513,311.445890996013,0.0888640884349716,1.92300988174629,2.07419419288635,-1.36728148792108,10.5103834793013
1.25,2.47840577120903,310.0430175597,311.445890996013,-0.0160566274338426,1.81904242780031,1.80347883701324,-0.743856637177651,9.47502264171678
1.26,2.80298402729887,309.849950056458,311.445890996013,-0.036143640545491,1.69167401947802,1.57955527305603,-0.594890383980835,8.87146386866831
1.27,3.12750808171795,309.910225614807,311.445890996013,-0.0183604212726935,1.88896570987887,1.75995790958405,-0.693329744595144,8.82156753169835
1.28,3.45207570088745,309.848417502768,311.445890996013,0.111635009832279,1.97600318013498,1.92712676525116,-1.44229629693788,9.26998561668014
1.29,3.77661794780555,309.937215799563,311.445890996013,0.0769532578607618,2.07305026966463,2.09312152862549,-1.23004695792954,9.70061770204984
1.3,4.10119109021063,310.04078065333,311.445890996013,0.152725496770755,1.81209454487134,1.90600824356079,-1.71457116722254,10.1227766630109
1.31,4.4257749827491,310.031922899057,311.445890996013,-0.116667963454113,1.60205555138237,1.69852519035339,-0.105101957567057,10.1108234213613
1.32,4.75034704777104,309.931936660129,311.445890996013,-0.0687361757570337,1.75412202296305,1.72161448001862,-0.411101475196004,9.31182935760886
1.33,5.07490757225083,309.873718874859,311.445890996013,-0.0453745142786475,1.79861800482352,1.72410821914673,-0.551796725737446,9.04757958992019
1.34,5.39945001732569,309.930928789348,311.445890996013,0.0495044775034734,2.00827663103312,1.91548609733582,-1.14146260293512,8.94963454990685
1.35,5.72399239925161,309.966563600864,311.445890996013,0.0903789204839226,1.95122675411146,1.93193626403809,-1.39142664695994,9.40362432004908
1.36,6.04853441789952,310.168475417209,311.445890996013,-0.020336698060545,1.94779787653069,2.04779672622681,-0.730469406292823,10.150919292293
1.37,0.0899058854642618,310.049200461591,311.445890996013,-0.103520016990816,1.80878040634934,1.8002063035965,-0.236949491163022,9.51524068061538
