t,theta,omega,r,i_d,i_q,i_q_ref,v_d,v_q
0,0,0,120.016738001799,-2.20585328438768e-24,0,0,0,0
0.01,0.0664985692550244,123.760781293249,120.016738001799,0.0178038891809724,2.71190143192545,3.32811427116394,-0.207757119697332,7.10725567927381
0.02,0.191641816678939,119.479528496472,120.016738001799,-0.0169600717896835,0.710057908107557,0.697603821754456,0.00788468489475116,3.2416634817973
0.03,0.316746001482544,119.45491728469,120.016738001799,0.0375385676650301,0.631062583241242,0.656878888607025,-0.334173329534661,3.50817330649604
0.04,0.441855390295226,119.423567401183,120.016738001799,0.00312196622490855,0.659354079604141,0.601949214935303,-0.108939776139909,3.0451928988653
0.05,0.566960476458273,119.522395491037,120.016738001799,0.0162979255175687,0.754398697497066,0.714077234268188,-0.194920048461799,3.18388894514259
0.06,0.692077432012304,119.427763442239,120.016738001799,-0.0073529859419484,0.526385536490578,0.537075161933899,-0.0646713450949135,3.5053872981959
0.07,0.81718186142339,119.498931931458,120.016738001799,0.101727565686234,0.660278514994291,0.695069253444672,-0.707453759440549,3.66342954111695
0.08,0.942298008478366,119.499424713888,120.016738001799,-0.00888137598546948,0.647507686137896,0.659899711608887,-0.0521844131679942,3.52783475505728
0.09,1.06741492608802,119.492023540709,120.016738001799,-0.0133727637508814,0.756639064826523,0.680611729621887,-0.00409192874046994,3.00818702968695
0.1,1.19253207604574,119.536796515554,120.016738001799,0.0409801722618103,0.762271461761174,0.681868493556976,-0.33847540689083,2.99882902471204
0.11,1.31765039301358,119.53283844512,120.016738001799,0.0217062705904733,0.798236903209858,0.747746467590332,-0.21540501630789,3.19526693280787
0.12,1.44277574572403,119.445827167215,120.016738001799,-0.106737067850764,0.515554189833488,0.573826849460602,0.561649353653031,3.84573388985658
0.13,1.56788787414312,119.512577042016,120.016738001799,0.0956246270309466,0.640858554529392,0.691013514995575,-0.678588256996372,3.79595684999902
0.14,1.69300790791559,119.470803356413,120.016738001799,0.0467653807496148,0.566588198474973,0.60463684797287,-0.357399254055651,3.71834238345093
0.15,1.81811948214769,119.452389387472,120.016738001799,0.0245799017964348,0.626510500382124,0.647322177886963,-0.223576371144451,3.62769270008392
0.16,1.94324191043042,119.474896832444,120.016738001799,-0.0573439231046806,0.751110123599575,0.706109046936035,0.274092129192589,3.24072668437974
0.17,2.06836842231451,119.438083782979,120.016738001799,-0.066575143754203,0.643361629458482,0.596630036830902,0.31668822077826,3.22668658927464
0.18,2.19349100346187,119.492779826151,120.016738001799,-0.0613343854242439,0.701170098211589,0.721935212612152,0.289370311860841,3.63552354846882
0.19,2.31861343680117,119.546910388222,120.016738001799,-0.0465863876872012,0.658213312305592,0.678635656833649,0.199686694200971,3.61830765947353
0.2,2.4437406530708,119.446853929293,120.016738001799,0.0355373602908931,0.589952556269581,0.64671790599823,-0.301136599795693,3.81957442506314
0.21,2.56886277220408,119.513377094294,120.016738001799,0.00765631315558302,0.667357636108152,0.697465360164642,-0.121636761637694,3.6609343921075
0.22,2.69399460052501,119.426676580469,120.016738001799,0.0302364483696518,0.662710931344638,0.606910824775696,-0.254030764361005,3.13994220253502
0.23,2.81911937644535,119.429352602927,120.016738001799,0.0121664688625254,0.665788864301362,0.591027081012726,-0.152857556230423,3.03063518742613
0.24,2.94424950920008,119.472373160538,120.016738001799,-0.0259295335881894,0.648463430271183,0.589291512966156,0.0754480453330067,3.11453941240921
0.25,3.06936299112337,119.521153377482,120.016738001799,0.0369796249305472,0.578360159409744,0.616722047328949,-0.327865605713275,3.70674577641416
0.26,3.19447563153582,119.484294548869,120.016738001799,0.0487845130771947,0.672823865402756,0.638551890850067,-0.371969142106783,3.27415888557109
0.27,3.3195923633031,119.444738804904,120.016738001799,0.00258464460633759,0.67953456247188,0.63000762462616,-0.0870054096303128,3.19535761433977
0.28,3.44471078480176,119.488361029902,120.016738001799,-0.0369481923298101,0.779242081836828,0.704444646835327,0.153197116923031,3.05706455359887
0.29,3.56983567562742,119.398234755005,120.016738001799,-0.0355810943622326,0.615323938728389,0.541263222694397,0.131554638544895,3.06400219995857
0.3,3.69494706400147,119.459967338663,120.016738001799,0.0167086328851483,0.699217537421662,0.704541683197021,-0.186966700602978,3.55750470434411
0.31,3.82006691055976,119.511664200267,120.016738001799,-0.0200697689483086,0.609118449653428,0.657549858093262,0.0270192211520608,3.8062688864838
0.32,3.94518371100706,119.492404922885,120.016738001799,-0.0239001924549863,0.619916525786435,0.651772081851959,0.0474089116423909,3.70149509191063
0.33,4.07029449429819,119.491847827288,120.016738001799,-0.0414859074045081,0.739100157918164,0.685954868793488,0.159712003464065,3.20794353376847
0.34,4.19541391866447,119.440126522789,120.016738001799,0.0125182309201806,0.712243561983086,0.61712521314621,-0.148552118884712,2.96048907841534
0.35,4.32052698478911,119.484047828749,120.016738001799,-0.0801322834872249,0.717250969107807,0.638526022434235,0.414223802762041,3.08075480008515
0.36,4.44565887930352,119.446434744039,120.016738001799,-0.0411962807515047,0.703002553731806,0.678286731243134,0.194642266825846,3.38961675435448
0.37,4.5707847071483,119.485171291161,120.016738001799,-0.0215545799584875,0.643261023646484,0.620669543743134,0.0390035560656065,3.39135690756632
0.38,4.69591687111631,119.432240884644,120.016738001799,-0.00237845647821112,0.571512232880922,0.614812612533569,-0.0630342838224784,3.754623343569
0.39,4.82103622534479,119.473608679537,120.016738001799,0.016813797395756,0.735875226395954,0.726229190826416,-0.182921861696423,3.43368702999849
0.4,4.94615758916391,119.448513422118,120.016738001799,0.00696877161368475,0.686216946061885,0.643251359462738,-0.113503783207465,3.24217081222187
0.41,5.07127998475276,119.497036683665,120.016738001799,-0.053392515511929,0.63859708033654,0.651215255260468,0.246976926661235,3.5860725702332
0.42,5.19639484156839,119.475693555837,120.016738001799,-0.032058780785442,0.718361462766191,0.716889977455139,0.115790824785515,3.51453745328196
0.43,5.32152995596152,119.503821623706,120.016738001799,-0.0665151802377805,0.528442783251943,0.618194341659546,0.312619502751984,4.04204271194601
0.44,5.446645146006,119.501319848361,120.016738001799,0.0106229251706272,0.647202970902006,0.666152775287628,-0.131583464964308,3.60721489610606
0.45,5.57176417345473,119.465132395622,120.016738001799,0.0355420408056081,0.59592992372296,0.58259904384613,-0.254169516814822,3.41080665829033
0.46,5.69688255098536,119.490786118485,120.016738001799,0.0735340488040219,0.78242409822373,0.731503427028656,-0.491021889724641,3.19272869387912
0.47,5.82200252021504,119.429849563744,120.016738001799,-0.00983313448617384,0.701866094363133,0.622668027877808,-0.00591448836545189,3.03408100852817
0.48,5.94712859714502,119.571301745305,120.016738001799,-0.0183588657536745,0.64667296842112,0.670648992061615,0.037197386110404,3.65537735748304
0.49,6.07224027150715,119.496789748176,120.016738001799,-0.0441211572602375,0.648024953375938,0.636777877807617,0.167346863911897,3.45434576024774
0.5,6.19735591161113,119.439359493535,120.016738001799,0.0844712855871806,0.532199623502363,0.618274509906769,-0.598154727850232,4.02886416797758
0.51,0.0392893189397041,119.461913927872,120.016738001799,0.014977387552466,0.680196654584777,0.63366824388504,-0.170391303182602,3.23231337701997
0.52,0.16442102192922,119.494185950445,120.016738001799,-0.00508505351856728,0.654219372677189,0.661922931671143,-0.0561493816729582,3.55159919994021
0.53,0.289540681569436,119.472963448941,120.016738001799,-0.0600528106551197,0.617459844965745,0.611317813396454,0.255858102963549,3.48486855353442
0.54,0.414662745244546,119.465798745055,120.016738001799,0.00233776250455578,0.679408214503258,0.623707950115204,-0.113110033691362,3.19724461355033
0.55,0.539783217176814,119.483840316942,120.016738001799,-0.0937731269600011,0.641362111731868,0.643539190292358,0.469491616527593,3.54430454917502
0.56,0.664904892732274,119.469908734947,120.016738001799,0.0240180814581214,0.580428535389622,0.649098038673401,-0.236006915886205,3.92954674173691
0.57,0.790026598948198,119.470947256155,120.016738001799,0.034919208441559,0.640049426533649,0.668455004692078,-0.261558606854132,3.67730840894311
0.58,0.915143220002811,119.486787704449,120.016738001799,-0.000959995535202873,0.636529332291829,0.627752542495728,-0.0521565915561039,3.46661656039673
0.59,1.04026315959296,119.467169914878,120.016738001799,-0.0733909595925838,0.716986896356989,0.628331780433655,0.391200283054698,2.99558945878452
0.6,1.16539090621661,119.522975253359,120.016738001799,0.0156807254839964,0.669739751870331,0.660515904426575,-0.161442813998881,3.46999420271674
0.61,1.29051181056274,119.512883719145,120.016738001799,0.0166064605891725,0.645526461256634,0.677027463912964,-0.187514779817705,3.71356009612944
0.62,1.4156256501419,119.538796238541,120.016738001799,-0.0431199661983603,0.689078739088288,0.697920143604279,0.150481181788279,3.57539655354064
0.63,1.54074886749419,119.478987842534,120.016738001799,0.0700326657488206,0.683839123888341,0.646355271339417,-0.517768036128163,3.287269119815
0.64,1.66587022620295,119.502029387267,120.016738001799,-0.00878860191001635,0.761499312124135,0.688430726528168,-0.0350198438588882,3.07518185542235
0.65,1.7909905094462,119.445914306906,120.016738001799,0.0026422191168352,0.76388169368625,0.709041059017181,-0.0973497110947034,3.19382299240689
0.66,1.91611160168937,119.489528324933,120.016738001799,0.0319736807606573,0.707043744756489,0.646071791648865,-0.269392121130419,3.1654875987676
0.67,2.04123869604708,119.496848886411,120.016738001799,-0.0683863898998599,0.71755614188005,0.68263703584671,0.332368457694677,3.31168832279115
0.68,2.16635824925001,119.519374175783,120.016738001799,0.0574234844967801,0.616954314711886,0.649669229984283,-0.450128817584712,3.71110750131148
0.69,2.2914829275891,119.522227196184,120.016738001799,0.0543671464281245,0.646821468214329,0.684439182281494,-0.412519523205729,3.73144337463487
0.7,2.41660891962734,119.501003399584,120.016738001799,0.0646453195346668,0.680682261342129,0.614457786083221,-0.463786144053382,3.10226966836188
0.71,2.54172665813721,119.439676941951,120.016738001799,0.0124617201370245,0.720321972975863,0.653224885463715,-0.161694256938005,3.10951367738062
0.72,2.66685033972846,119.48061252383,120.016738001799,-0.0654377851644376,0.641270038539456,0.634473025798798,0.320789494490545,3.47885277868118
0.73,2.7919816440986,119.473260101556,120.016738001799,-0.041694212998149,0.618863202572398,0.660198450088501,0.16300428947228,3.75734035611482
0.74,2.91709809294294,119.538967218053,120.016738001799,-0.0457374262738868,0.657904735121243,0.68747079372406,0.177601025238606,3.68361965649664
0.75,3.04222044969084,119.457547585853,120.016738001799,0.106723067666161,0.671777197834409,0.681309044361115,-0.75268357576313,3.55335396934648
0.76,3.16734455118706,119.460016582204,120.016738001799,0.00902626073420806,0.697491929504182,0.653456330299377,-0.169859497107205,3.23426755967876
0.77,3.29246575278636,119.447320486928,120.016738001799,0.0564909306020662,0.726416880617101,0.667641758918762,-0.440051181617457,3.1520489397692
0.78,3.41758573714705,119.514748181544,120.016738001799,0.0130792410156153,0.683550678358991,0.682188630104065,-0.1661289661029,3.50687095981636
0.79,3.54269636466557,119.5143115074,120.016738001799,-0.0520616229038828,0.766109034418145,0.729582488536835,0.225266124627508,3.31022703039718
0.8,3.66782293627539,119.454486524328,120.016738001799,-0.0782214865048061,0.624456157864499,0.649020969867706,0.359909652400382,3.66361176089581
0.81,3.79294857337599,119.489209801076,120.016738001799,0.0682937045417249,0.563773184034977,0.63068699836731,-0.502569229422942,3.9029011825065
0.82,3.91808100334215,119.442760261749,120.016738001799,0.0488889915552492,0.564753340467196,0.590989410877228,-0.381739982103824,3.64500550254714
0.83,4.04319145068252,119.466725137386,120.016738001799,-0.0162954524090958,0.747674760340502,0.695789217948914,0.0327717126831045,3.19828042315652
0.84,4.16831905150787,119.48187219348,120.016738001799,-0.0671819666405423,0.608894485194737,0.614956736564636,0.335282903737928,3.55028631611981
0.85,4.29343508206791,119.480775907939,120.016738001799,-0.00924631850926523,0.613135795383045,0.632812023162842,-0.0200208272503373,3.64408484397012
0.86,4.41855025488279,119.561392103023,120.016738001799,-0.0176569371219011,0.641195420748783,0.709913790225983,0.0138759322881006,3.93766298874498
0.87,4.54367055437515,119.490182022661,120.016738001799,0.0124108343303279,0.645141012758629,0.65507435798645,-0.152868462643441,3.57666028490322
0.88,4.66879340827548,119.514612833566,120.016738001799,0.0503870425858397,0.689057847390788,0.7308549284935,-0.368043692743571,3.75792161014662
0.89,4.7939230309166,119.458331498475,120.016738001799,-0.0379522822417993,0.626868192977146,0.625226318836212,0.167164994356333,3.48735266839099
0.9,4.91904595533703,119.47874021597,120.016738001799,0.0543455585230223,0.629955920051029,0.623219788074493,-0.384419756087255,3.46628613603151
0.91,5.04416621105962,119.452128015031,120.016738001799,-0.0355195887769924,0.709197310712201,0.698819696903229,0.160166282322734,3.44796520797362
0.92,5.16929356925202,119.49745070657,120.016738001799,0.0115719727762934,0.553902671177607,0.591937720775604,-0.142569579050471,3.72141324736313
0.93,5.29441243880224,119.426971213931,120.016738001799,-0.00110004971019073,0.571185289985259,0.6211296916008,-0.0437466113064612,3.78173769956352
0.94,5.41952693204311,119.47249351173,120.016738001799,0.0473945033050664,0.701091499015967,0.687120616436005,-0.336693724417716,3.40693992409556
0.95,5.54464120653398,119.472766245381,120.016738001799,0.00921252775731535,0.753782398065313,0.715973794460297,-0.10857825605812,3.28430913531428
0.96,5.66976280175616,119.462669894774,120.016738001799,-0.00531986948949104,0.724251967088039,0.655477344989777,-0.0287114321795352,3.11066331771762
0.97,5.79488892837458,119.396170459963,120.016738001799,-0.0506554809933872,0.650526817452557,0.628618180751801,0.211860385344134,3.39213962956452
0.98,5.92001513547431,119.52546489982,120.016738001799,-0.0514268040363793,0.665689568981992,0.685101687908173,0.219667012923039,3.6360601733413
0.99,6.04513782342833,119.4490499671,120.016738001799,0.0415676656228037,0.564856022362795,0.634485244750977,-0.342469090534074,3.92367994380785
1,6.17026195752033,119.469221505355,120.016738001799,-0.0311054903428159,0.690571693042711,0.621503412723541,0.10236114822237,3.08705649622593
1.01,0.0121866546596792,119.489993533056,120.016738001799,0.0509668693012309,0.745630703291378,0.670444190502167,-0.378544169956331,3.07361284067838
1.02,0.137312902601685,119.488352075679,120.016738001799,0.0470401365576933,0.62671394726085,0.606797397136688,-0.357513960507573,3.40900795374169
1.03,0.262434502591198,119.464080911441,120.016738001799,-0.0162773570876794,0.653785117621809,0.608178377151489,0.0310207983849725,3.26470873676134
1.04,0.387555822598124,119.521694089385,120.016738001799,-0.0179022840583904,0.624810926417656,0.652817010879517,0.0213861958328824,3.7055390870304
1.05,0.512679854879718,119.512502493224,120.016738001799,-0.0572641630866723,0.643164654135594,0.663468301296234,0.263772575597012,3.6411491765015
1.06,0.637800493295305,119.459057064372,120.016738001799,0.0239468191828287,0.674260682978115,0.614319801330566,-0.232253888164398,3.15417239261845
1.07,0.762920357204184,119.463503682092,120.016738001799,0.057407468562461,0.723982312405151,0.648920297622681,-0.423833347218698,3.06630697578184
1.08,0.888037342377297,119.511381596809,120.016738001799,-0.0178624348879996,0.751499061895984,0.67999792098999,0.0265106840486145,3.10228603612586
1.09,1.01315455179634,119.490495272037,120.016738001799,-0.0344933082294492,0.733003038152744,0.670843899250031,0.1216324364763,3.17192897573405
1.1,1.13827689618049,119.500013956374,120.016738001799,-0.102554693343321,0.581335816848381,0.659126698970795,0.530174261017664,4.01179078210914
1.11,1.26339634505287,119.529526710791,120.016738001799,0.00177787855907924,0.614152382135604,0.657447695732117,-0.10892696569501,3.79712711378375
1.12,1.38852265360063,119.48076720334,120.016738001799,0.0734474132878969,0.611856213495337,0.629199683666229,-0.52812624067215,3.6266747578072
1.13,1.51365754552105,119.467152884215,120.016738001799,0.0347988239335897,0.623025777127967,0.610109090805054,-0.319067758595831,3.42960834654102
1.14,1.63878325499828,119.491667075062,120.016738001799,0.0557085305731395,0.647820743817948,0.646267831325531,-0.439608214411699,3.49998619256942
1.15,1.76390448921644,119.505341118531,120.016738001799,-0.00139925726552448,0.729215157664421,0.652808904647827,-0.097781320700515,3.05921812369641
1.16,1.88903704141883,119.476612788176,120.016738001799,-0.093325559631568,0.636547995293184,0.63470071554184,0.433006211724945,3.48835546729174
1.17,2.0141629807105,119.483359111286,120.016738001799,-0.00267216699599048,0.573613747631435,0.587787866592407,-0.0952366923662688,3.56596748850108
1.18,2.13928189296081,119.516204616952,120.016738001799,0.0564408517381736,0.702007554584793,0.676734387874603,-0.448073668713978,3.32283991567005
1.19,2.26440075803766,119.456877903298,120.016738001799,-0.0287371594533945,0.633265400663816,0.639769434928894,0.0667937077880981,3.51790105037854
1.2,2.38952381872961,119.504198947637,120.016738001799,0.0145513404656856,0.750069578437938,0.666465878486633,-0.177890580034224,2.98712316674397
1.21,2.51464293749975,119.478674487312,120.016738001799,0.0291686423047125,0.728497997077494,0.653777599334717,-0.286243172754574,3.05414227091043
1.22,2.639760936672,119.453274783113,120.016738001799,-0.0798148692386234,0.570662546514917,0.601399779319763,0.347894891770714,3.69172245811304
1.23,2.76488007243123,119.47229046459,120.016738001799,0.0274924909787367,0.570646311985491,0.614828765392303,-0.284477557824614,3.76576422685066
1.24,2.8899971965728,119.499547135694,120.016738001799,0.0545825005215366,0.646309385070926,0.711713254451752,-0.422786564256294,3.88703947443124
1.25,3.01511361916395,119.436803314754,120.016738001799,0.0769308517437942,0.655975225716143,0.59746927022934,-0.544043586714952,3.15189184706766
1.26,3.14023497020513,119.476137559598,120.016738001799,0.0122767239608734,0.728485533514601,0.640289962291718,-0.152895780501638,2.98091148980324
1.27,3.26536307531688,119.479704326921,120.016738001799,-0.0212286882863191,0.624287719894473,0.633845865726471,0.0480436886262254,3.56828246893116
1.28,3.39048384733776,119.543551350151,120.016738001799,0.0474264472284164,0.720674449166936,0.724824845790863,-0.373712776187881,3.5367699635374
1.29,3.5156020582189,119.530192281332,120.016738001799,-0.0152574831679494,0.625725115627363,0.691100537776947,0.0183359701759895,3.89625425952016
1.3,3.64071330596898,119.483006802342,120.016738001799,0.130552759816223,0.682007552623916,0.694593071937561,-0.863954838842695,3.58177018741912
1.31,3.76583715420566,119.440701372442,120.016738001799,-0.0270342034923826,0.676695312671054,0.613749265670776,0.108751623859452,3.12851722986163
1.32,3.89096336726989,119.452466526648,120.016738001799,-0.104716366039977,0.692382956550472,0.68798291683197,0.580388900134016,3.48262242546709
1.33,4.01608204895269,119.470883338159,120.016738001799,0.00776852718070099,0.73582281793167,0.674346208572388,-0.0991106244058131,3.15898597171542
1.34,4.14121034796839,119.521129968453,120.016738001799,-0.00373614972039432,0.73616595331534,0.67370593547821,-0.0443380411551923,3.14852845594082
1.35,4.2663267415061,119.538836114006,120.016738001799,-0.017865898724985,0.617880421923079,0.661525785923004,0.0242400099149356,3.78123332525165
