t,theta,omega,r,i_d,i_q,i_q_ref,v_d,v_q
0,0,0,250.501797636747,-2.26157446859058e-24,0,0,0,0
0.01,0.0644963968524174,126.323647368743,250.501797636747,0.196052006961373,7.54162070172188,10,-1.27317012134119,18.5127565351217
0.02,0.26281633851776,249.756459820309,250.501797636747,0.242939024625212,7.70447305073854,10,-1.88674442725524,20.9565367782661
0.03,0.523919905818921,249.200737523943,250.501797636747,0.00122900447105723,1.49017804539016,1.60111963748932,-0.479965954600244,7.78315982195235
0.04,0.784786202905076,249.152539152838,250.501797636747,0.0128383540501021,1.63898485158777,1.80586588382721,-0.536942019612972,8.33834844410242
0.05,1.04571061337508,248.964608902659,250.501797636747,0.0413384309586925,1.4966513896732,1.63446927070618,-0.721483401472272,8.30792951384393
0.06,1.3066391380075,249.21017049038,250.501797636747,-0.06789452368763,1.43075319941233,1.41088366508484,-0.0705861559225799,7.49003411310011
0.07,1.56755546306135,249.347918397305,250.501797636747,0.00847852527318544,1.51410756188653,1.56043672561646,-0.531519423750131,8.00720230445015
0.08,1.82849354762898,249.109095032574,250.501797636747,0.0803202375831022,1.59047426044107,1.73772156238556,-0.941171350268415,8.69637296129725
0.09,2.08945919344857,249.059236136446,250.501797636747,0.0145230042375539,1.62349382857559,1.71670508384705,-0.535671667005093,8.43865532395448
0.1,2.35044875694778,249.171511523106,250.501797636747,-0.0705196436838746,1.36952808200243,1.30285704135895,-0.0424773371132049,7.5020067947442
0.11,2.61140705727782,249.304728592059,250.501797636747,-0.00443216082421505,1.41257304726256,1.4518905878067,-0.456688439707343,8.17923195343765
0.12,2.87237415227041,249.212783924477,250.501797636747,0.0421148383256589,1.62340289573824,1.71458423137665,-0.733844135204519,8.5287338226476
0.13,3.13337364097456,249.043722302651,250.501797636747,0.0564407077309012,1.49339742212804,1.54682302474976,-0.831455195958331,8.30616428193557
0.14,3.39437077089292,249.214534411642,250.501797636747,-0.0613238805328343,1.39113997627478,1.31675553321838,-0.131164378806172,7.54403526655065
0.15,3.6553191835243,249.43957289452,250.501797636747,0.0492504416033771,1.59087026235588,1.58572745323181,-0.779060077012589,8.02177712622658
0.16,3.91629257109348,249.223035169664,250.501797636747,0.0094881700224636,1.62632904183771,1.69065618515015,-0.543165309509179,8.47431977059777
0.17,4.17729908978425,249.02759867576,250.501797636747,0.0220535329436661,1.4899291140778,1.567338347435,-0.624521449956434,8.54677245826702
0.18,4.43830045496461,249.241951649655,250.501797636747,0.00885125397467451,1.46340813026845,1.4107106924057,-0.558831431539151,7.7582688263659
0.19,4.69925229546991,249.401789395341,250.501797636747,0.0228044182265412,1.59270545230212,1.57193922996521,-0.655343917533854,7.99731258935348
0.2,4.96024289647311,249.15660001461,250.501797636747,-0.0419586242211377,1.70659549212567,1.76410591602325,-0.244969856666157,8.46838251712436
0.21,5.22125416766641,249.083462392012,250.501797636747,-0.0291605783546484,1.47625506860923,1.47326731681824,-0.332086441683932,8.092532800655
0.22,5.4822512361523,249.313926640972,250.501797636747,0.010383442492014,1.44452025166333,1.37833654880524,-0.568549165927261,7.71203085408599
0.23,5.74320875970083,249.316878105869,250.501797636747,0.124031330196915,1.61197596759427,1.67264640331268,-1.24024584865641,8.51207329145946
0.24,6.00420449264923,249.14370943533,250.501797636747,0.0367368504213054,1.74696414962785,1.86605513095856,-0.708579411262238,8.85705861794523
0.25,6.26521017400592,249.177438528106,250.501797636747,0.000627126466757361,1.66251634223496,1.73117482662201,-0.491192228743282,8.55025582873507
0.26,0.243027807224991,249.331418020176,250.501797636747,-0.0227335330491499,1.4368805650461,1.40321004390717,-0.385651184043935,7.92743820212285
0.27,0.504006363493818,249.456171458315,250.501797636747,0.0438867662745634,1.69491147107028,1.64526283740997,-0.789176463793207,7.83361423126107
0.28,0.765009960323709,249.172294919466,250.501797636747,-0.00619501514025278,1.71519971427542,1.7967574596405,-0.491672695833262,8.60663150720362
0.29,1.02602825259727,249.090289606572,250.501797636747,0.0148410575888956,1.5307470881579,1.60821986198425,-0.614759866441416,8.55716021366853
0.3,1.28702400327231,249.374034429925,250.501797636747,-0.0915303719876917,1.40957247743547,1.34938180446625,0.021638846781733,7.72736271337387
0.31,1.54800330621497,249.447139226433,250.501797636747,0.0566501153640414,1.67753754323289,1.6435786485672,-0.852091238780725,7.88546343930201
0.32,1.8090048058696,249.137107630765,250.501797636747,0.0687151754655013,1.64997029117349,1.80112540721893,-0.90398698724626,8.98555668627913
0.33,2.07000729476199,249.19216382602,250.501797636747,0.00264341316970151,1.49520918596853,1.45082604885101,-0.515516591426941,7.8142732361852
0.34,2.33099824495494,249.405042622816,250.501797636747,-0.0957672366816106,1.4754179028241,1.49624860286713,0.0572067491497427,8.20729430975324
0.35,2.59197417753557,249.390051172543,250.501797636747,0.110373518233919,1.64528930229112,1.65564751625061,-1.17121656425844,8.15619067850616
0.36,2.85296285058105,249.150148976753,250.501797636747,0.0352299026225288,1.69898227377628,1.80285143852234,-0.703061228349451,8.73266801410718
0.37,3.11397792876025,249.074367660628,250.501797636747,-0.0535626326840702,1.42656736568868,1.41140568256378,-0.181347840243026,8.00014513554997
0.38,3.37495768650083,249.349099929592,250.501797636747,-0.0143037163601875,1.47710512675285,1.49797463417053,-0.427946115200714,8.23515131013034
0.39,3.63593709015455,249.282151270323,250.501797636747,0.0494108322181976,1.63893572050573,1.67315900325775,-0.79497070658186,8.32201145784026
0.4,3.89694646283826,249.175143143405,250.501797636747,0.0984172786533472,1.72708265032861,1.8109005689621,-1.10047039293457,8.59731205052062
0.41,4.15796458542952,249.213904090522,250.501797636747,-0.0199053271252652,1.46666813428148,1.3525413274765,-0.408985219075866,7.38404879461797
0.42,4.41893113248198,249.513369932571,250.501797636747,-0.0412036191659454,1.5450665808161,1.56205213069916,-0.274467720512297,8.20732497548672
0.43,4.67991219869679,249.326282577809,250.501797636747,0.00417941673027672,1.66192119085355,1.6651064157486,-0.5307518555903,8.13103839153731
0.44,4.94092245501466,249.133868348367,250.501797636747,0.0094126753822856,1.66706062170522,1.72328817844391,-0.563252612435032,8.42776314598067
0.45,5.20193347029817,249.310404806989,250.501797636747,-0.0525525826339947,1.48668794512957,1.37843108177185,-0.182577310666553,7.42797825242691
0.46,5.46291210365094,249.402524614516,250.501797636747,0.00613163227396962,1.49387472558069,1.48853135108948,-0.550861108476779,8.05556645073336
0.47,5.72387902540038,249.291065780357,250.501797636747,0.0740899722723598,1.62637687634518,1.64653027057648,-0.952034218744377,8.23638198767246
0.48,5.98488217611626,249.039601045047,250.501797636747,0.0364632169077336,1.54074204178847,1.6420441865921,-0.712109256876749,8.71997967966968
0.49,6.24590227417002,249.268521772431,250.501797636747,-0.0862252873311171,1.4773145910418,1.43058490753174,0.0254642830701513,7.79982791861956
0.5,0.223690875833682,249.38010794771,250.501797636747,-0.0124712657315528,1.43936007260954,1.4863053560257,-0.428976770172295,8.3808997262486
0.51,0.484656931108413,249.314631590238,250.501797636747,0.00905092560439624,1.65267729049907,1.65037906169891,-0.551513910926965,8.12304615772702
0.52,0.745677547390162,249.157768169916,250.501797636747,0.0285707115753683,1.62722188698483,1.75277817249298,-0.687651282947704,8.86631722746028
0.53,1.00669038931221,249.325799030868,250.501797636747,-0.036093508353324,1.48647640302734,1.38285410404205,-0.316598051302472,7.4721715557031
0.54,1.26768025622714,249.367709256021,250.501797636747,-0.0503414299306334,1.3774085029745,1.36782193183899,-0.237036435675142,8.0300995093436
0.55,1.52865814219843,249.185517754842,250.501797636747,0.0667026951022779,1.64009773625786,1.73482632637024,-0.950589066495689,8.66587598202763
0.56,1.7896644646254,249.090003654223,250.501797636747,-0.0055163869277858,1.61791499348804,1.65714871883392,-0.496921748189975,8.32764946802035
0.57,2.05067130337197,249.24937178186,250.501797636747,-0.10438720185656,1.4219564982847,1.33697509765625,0.0925188726720342,7.57705716300656
0.58,2.31161832192088,249.44230483269,250.501797636747,0.104158624696658,1.66015797473237,1.6830677986145,-1.15581750530809,8.28191205768669
0.59,2.57260451389116,249.113427374244,250.501797636747,0.0419131145680171,1.58716903249907,1.69976460933685,-0.783201886046679,8.82738853204935
0.6,2.83361378517397,249.012787298835,250.501797636747,0.0353384175127882,1.4827305759201,1.54291117191315,-0.758557542491698,8.50287303863978
0.61,3.09463888361536,249.334828056809,250.501797636747,-0.0775364689402098,1.4637991014647,1.37018167972565,-0.0936430524428175,7.5318500565823
0.62,3.35559970211615,249.427425136307,250.501797636747,0.0392581279657736,1.68210552141565,1.65934264659882,-0.782564571322173,7.98673018264288
0.63,3.6166045097492,249.140176479903,250.501797636747,-0.00577566526083739,1.65293209591041,1.77520132064819,-0.496730065524489,8.83792224489528
0.64,3.87760062748462,249.017968220735,250.501797636747,0.00727101819714848,1.48970210819402,1.5796856880188,-0.558131721882502,8.65764184793099
0.65,4.13861394633442,249.371933253345,250.501797636747,-0.0928998248786421,1.46427948910121,1.41653156280518,0.0378790725610293,7.80343975026375
0.66,4.39958288024117,249.37093846597,250.501797636747,0.0851795630884968,1.64480695822578,1.63315582275391,-1.03802016052001,8.03650219809071
0.67,4.6605816410818,249.135786184373,250.501797636747,0.00503726625802403,1.63247091505682,1.77871131896973,-0.531108736243612,8.9810731784157
0.68,4.92159390799315,249.086725828614,250.501797636747,-0.0432477513933269,1.47615519768279,1.47073221206665,-0.258064563049586,8.05616171644633
0.69,5.1825759833416,249.393454698047,250.501797636747,-0.0206698582020302,1.47410482591254,1.38223779201508,-0.408884368374919,7.56342074469454
0.7,5.44354699748516,249.371479578861,250.501797636747,0.0588925216321928,1.65666166131115,1.62264180183411,-0.897877823856348,7.92350133986904
0.71,5.70454533151199,249.128004994426,250.501797636747,0.00156777880934755,1.64587379202072,1.77991783618927,-0.54919934224587,8.93099530504407
0.72,5.96554634531807,249.033739055876,250.501797636747,0.00165326062048587,1.47276448218587,1.55499911308289,-0.55279263789615,8.62503360092698
0.73,6.2265473497944,249.305916802286,250.501797636747,-0.0400189776110517,1.40321399618811,1.32321536540985,-0.299834162825047,7.64337315926351
0.74,0.204337965792458,249.483903867335,250.501797636747,0.0421738350024785,1.70938651123343,1.66027474403381,-0.811204777854964,7.83859795881233
0.75,0.465343198983362,249.126177131547,250.501797636747,-0.00193272791468008,1.63190132565281,1.74291384220123,-0.537768152704448,8.78480494326808
0.76,0.726344690025741,249.109678675147,250.501797636747,0.0194370668871033,1.48145498582441,1.48906636238098,-0.65825636929657,8.1724066260446
0.77,0.987331527593287,249.346914018214,250.501797636747,-0.0646033891437002,1.46562347007651,1.44707024097443,-0.177841270332565,8.02956432980092
0.78,1.24831842897509,249.464289122361,250.501797636747,0.10337299656173,1.65843355108404,1.59949088096619,-1.17164768976856,7.77299084754996
0.79,1.50930229786796,249.148574180924,250.501797636747,0.0717995833501119,1.71661010090492,1.87553083896637,-0.971121840976169,9.09818850968608
0.8,1.77032404018538,249.07644105359,250.501797636747,-0.0263598614123409,1.46054682809369,1.49408936500549,-0.401533657791721,8.31956867646348
0.81,2.03132819411463,249.434339908026,250.501797636747,-0.0905638424262675,1.44047601997421,1.398277759552,-0.0126325426017694,7.84890749420492
0.82,2.29229199010068,249.227210021326,250.501797636747,0.0200158961941783,1.6207825298412,1.66054236888885,-0.658364323787386,8.36760578779163
0.83,2.55329895577728,249.092417336798,250.501797636747,0.0223854634060671,1.6058579541577,1.71937894821167,-0.660436740000485,8.79658137139571
0.84,2.81431645708642,249.115957021831,250.501797636747,-0.0429463802324574,1.44415883095746,1.41718125343323,-0.276108262329989,7.93557945678252
0.85,3.07531356630059,249.344694561579,250.501797636747,-0.0785857263226155,1.352184316349,1.31136536598206,-0.0609947087150063,7.84236061243476
0.86,3.33628411531401,249.213919855089,250.501797636747,0.0240792507990272,1.62164069705398,1.6795893907547,-0.66981002231303,8.45399793707875
0.87,3.59726814832537,249.132287330083,250.501797636747,0.0740277947237123,1.72205861841242,1.83878493309021,-0.972403532121916,8.83330797657993
0.88,3.85829388768609,249.227591534733,250.501797636747,-0.0121548822848339,1.48804921559223,1.43832862377167,-0.452237746149308,7.79941591683139
0.89,4.11928635306003,249.349661641858,250.501797636747,-0.00714936247303022,1.35007961474789,1.32941877841949,-0.474941081258304,7.9683147537364
0.9,4.38024616089038,249.224941383929,250.501797636747,-0.0026174695010982,1.63301536392056,1.67442750930786,-0.480461326988527,8.37711639479615
0.91,4.64123354073543,249.142186923151,250.501797636747,0.00371287227610817,1.65131661844854,1.75250494480133,-0.525608110256642,8.75836296298104
0.92,4.90224865761235,249.242942170853,250.501797636747,-0.0184439777133573,1.43914836036744,1.36284327507019,-0.392157954164049,7.67415631128371
0.93,5.16323598861573,249.388164675132,250.501797636747,-0.0704131035936574,1.41079021347157,1.46248757839203,-0.0934070264109453,8.43977713484739
0.94,5.42421402341073,249.273660195787,250.501797636747,0.0744824183061902,1.61553676523618,1.62315118312836,-0.973682215639833,8.18456145235685
0.95,5.68526116802767,249.013224335066,250.501797636747,-0.0610043372055867,1.49524378992364,1.54319250583649,-0.142355884495645,8.35376507839815
0.96,5.9462624387371,249.217674266604,250.501797636747,0.00223728296691539,1.36859448903138,1.28656733036041,-0.527799221929704,7.57332564370837
0.97,6.20723943554959,249.363414303203,250.501797636747,0.026756360642934,1.46478407289237,1.41649556159973,-0.699487019797788,7.78840556622998
0.98,0.18503617375373,249.27501808933,250.501797636747,-0.0210510066636357,1.64746704116128,1.66611337661743,-0.401901446429921,8.19544865672356
0.99,0.446048181523341,249.054544367396,250.501797636747,-0.0262834465666153,1.54606930830292,1.61334490776062,-0.361736942158279,8.4702135525014
1,0.707042730732631,249.230417579952,250.501797636747,-0.0819993028355719,1.41788210554595,1.36446583271027,-0.0259959437381957,7.76412987519049
1.01,0.968021670666928,249.359319827376,250.501797636747,-0.0622773768771661,1.38068486594585,1.38156926631927,-0.149910851117601,8.0979030814166
1.02,1.22901244813199,249.244773875225,250.501797636747,0.0565945512695902,1.60322237428073,1.60492300987244,-0.853180353589266,8.09378107698099
1.03,1.49001529834811,249.01665782865,250.501797636747,0.0527548915205499,1.49496200774283,1.56448483467102,-0.80915495543402,8.50322608264083
1.04,1.75101349730566,249.25237031682,250.501797636747,-0.0490487855678318,1.31342394408273,1.24318218231201,-0.200511941982927,7.6742151507032
1.05,2.01198330132801,249.451742685103,250.501797636747,0.0393702944575635,1.60177628672274,1.59300088882446,-0.749431146419262,8.06408335882716
1.06,2.27296603417198,249.329577103414,250.501797636747,0.0319459475783229,1.64570203054076,1.64705014228821,-0.696751235593489,8.14143831282946
1.07,2.53398678360471,249.057592113107,250.501797636747,0.0365359428034594,1.52363361247446,1.61580312252045,-0.718444177835709,8.66291686238977
1.08,2.79499094313293,249.259733430092,250.501797636747,-0.0504168093630681,1.43427160550647,1.37198257446289,-0.216841392590597,7.72370511086617
1.09,3.05595384825902,249.432959869366,250.501797636747,0.128982261301868,1.63399731885316,1.63334381580353,-1.29896190120872,8.12514734183792
1.1,3.31695138352625,249.130960820557,250.501797636747,0.0278980175431215,1.64583559196341,1.77463102340698,-0.69668159521655,8.89114939180271
1.11,3.57796599574035,248.986522149127,250.501797636747,0.00652200641349837,1.47723237607179,1.57907009124756,-0.559430164910639,8.70879938592608
1.12,3.83895618642839,249.352834277633,250.501797636747,-0.00901809499867542,1.46631815717951,1.33296883106232,-0.468074557913698,7.31416780946388
1.13,4.09993040976628,249.404228880146,250.501797636747,-0.000342793299194732,1.59653872046333,1.56273639202118,-0.515061682968974,7.92276397639412
1.14,4.36094099608399,249.160970222339,250.501797636747,-0.0238519990407243,1.67837847733288,1.81851923465729,-0.369623935175802,8.93494466067278
1.15,4.6219405474487,249.073967864104,250.501797636747,-0.055042979340279,1.47459935314708,1.48371183872223,-0.178520373230636,8.15717516887376
1.16,4.88293052968058,249.338804477229,250.501797636747,-0.0505176006797275,1.47008325727584,1.39959824085236,-0.209157994257383,7.69184945283147
1.17,5.14390547520688,249.345553085842,250.501797636747,0.0825020339900926,1.54671631831826,1.5493768453598,-1.03379868637694,8.14041981228027
1.18,5.40489445692221,249.157810239609,250.501797636747,0.00907145205689844,1.75190102211897,1.85933649539948,-0.563461117664198,8.78123330388801
1.19,5.66592056176723,249.070372826932,250.501797636747,-0.0325076231246053,1.48121412831384,1.5439727306366,-0.307937766961379,8.47609059196666
1.2,5.92691230918685,249.265235510592,250.501797636747,-0.0518411543154976,1.44534251312306,1.45613300800323,-0.196795946434834,8.17089825896828
1.21,6.18787350903964,249.370501790168,250.501797636747,0.0845662886406214,1.62353854688098,1.57766044139862,-1.01434210497019,7.86500624905286
1.22,0.165692258100442,249.172440399071,250.501797636747,0.000637226386526968,1.67155423184955,1.80894076824188,-0.506688725685942,8.95418858324824
1.23,0.426714920835277,249.119007472477,250.501797636747,0.00790751908018722,1.47119738198866,1.44122982025146,-0.563204914595496,7.92123771876014
1.24,0.687696344749931,249.413889522154,250.501797636747,-0.0672134080125861,1.48386959004687,1.44941306114197,-0.124911145034253,7.91922014099635
1.25,0.948678463262041,249.378052418968,250.501797636747,0.0442194424154805,1.67099829831048,1.68712961673737,-0.783966206235439,8.21382901250012
1.26,1.20967444566099,249.146423883767,250.501797636747,0.0163844350463056,1.69389962191861,1.77121412754059,-0.599887902976328,8.58791021038838
1.27,1.47069313748531,249.101831365676,250.501797636747,-0.0675924548576972,1.44882903644548,1.41684973239899,-0.0927561238203851,7.91475085631785
1.28,1.73168539568408,249.373320695744,250.501797636747,-0.0691219899488316,1.46156864786441,1.41548025608063,-0.0947864363188851,7.82541893929317
1.29,1.99265776385884,249.370769806252,250.501797636747,0.0998966259069822,1.63233788575422,1.61351871490479,-1.09844534766594,8.00641174223587
1.3,2.25366822567945,249.161784250966,250.501797636747,0.0267969191437147,1.65977880683817,1.80771780014038,-0.658415128075874,8.98697646621802
1.31,2.51467845798768,249.149310137878,250.501797636747,-0.0429858280286575,1.45828721367138,1.44373297691345,-0.264360464361746,8.00429712342677
1.32,2.7756771696201,249.517696136344,250.501797636747,-0.0497961764321759,1.43104967653826,1.38071203231812,-0.227126116376131,7.77690304579412
1.33,3.0366361505152,249.331911236828,250.501797636747,0.0618665335678982,1.66199972349113,1.69390118122101,-0.890789106572171,8.30781989902716
1.34,3.29762003056494,249.168061813389,250.501797636747,0.0693825455191328,1.72714303111392,1.81545090675354,-0.939135295623008,8.6732385202485
1.35,3.55865624325569,249.227045631214,250.501797636747,-0.0164763489887827,1.47333431683139,1.39046943187714,-0.424575433669658,7.59515381861759
1.36,3.81963987367285,249.317780189712,250.501797636747,-0.0799231370430543,1.3463760857362,1.2871150970459,-0.0513621214694052,7.74494501695025
1.37,4.08059340516499,249.406618749371,250.501797636747,0.0648725451224952,1.66049729831381,1.62487459182739,-0.918304174886607,7.93518986206851
