t,theta,omega,r,i_d,i_q,i_q_ref,v_d,v_q
0,0,0,93.702151615263,-2.33014844827092e-24,0,0,0,0
0.01,0.0598200677906074,90.7762734298656,93.702151615263,0.023331291077334,-1.56620750515375,-2.08112812042236,-0.221299456978441,-0.553758721568353
0.02,0.157387143315956,93.2019990077226,93.702151615263,-0.000227219765257081,0.573897950858381,0.574376404285431,-0.0775568725862799,2.71927706603259
0.03,0.255036615078545,93.2809645698349,93.702151615263,0.0304997924579411,0.530727399284946,0.604572772979736,-0.275147279656613,3.21101468603635
0.04,0.352696886852053,93.2503572362571,93.702151615263,0.0312512275946391,0.425548039511324,0.525659263134003,-0.299004662304815,3.37019817339996
0.05,0.450346586532455,93.2641727269183,93.702151615263,0.027036999135616,0.535649309169516,0.551553547382355,-0.246068276129614,2.91504062170627
0.06,0.548008802461882,93.3407766739955,93.702151615263,0.0114756268920072,0.531152796958799,0.58310478925705,-0.166773504033285,3.15401133576887
0.07,0.645664209430895,93.3248475785478,93.702151615263,0.0162918876319404,0.577918503298655,0.580352485179901,-0.197653641008411,2.86065932710416
0.08,0.743329733677836,93.2933074915134,93.702151615263,-0.0214582185331137,0.583739104879547,0.603220522403717,0.0299773688545493,2.99265665589203
0.09,0.841003969029622,93.3286902155919,93.702151615263,0.0478548773149338,0.507269178114982,0.51205575466156,-0.387474030738144,2.90646334785745
0.1,0.938657912793292,93.2035400986056,93.702151615263,0.0507636984362151,0.480208092692355,0.548451066017151,-0.421392623847175,3.29722237194828
0.11,1.03631760441928,93.3094350096561,93.702151615263,-0.0459939178933689,0.582116464580676,0.596657276153564,0.17935316524852,3.01311406388509
0.12,1.13399843635614,93.2495194178265,93.702151615263,0.00646367388817267,0.480860793956384,0.482852905988693,-0.11803943749271,2.92213782565272
0.13,1.23166559653178,93.2574881138735,93.702151615263,0.0845063827932595,0.489221300904801,0.542237639427185,-0.624588448777703,3.22139811092228
0.14,1.32933775390459,93.2748442361542,93.702151615263,0.0845245447550798,0.596712701945048,0.564066886901855,-0.606700239409925,2.72199125745295
0.15,1.42701386855899,93.3213425255574,93.702151615263,-0.00891649314352233,0.522450157780201,0.558751285076141,-0.0423038746236484,3.12303625616993
0.16,1.5246826020297,93.2498411451683,93.702151615263,0.106875613739195,0.484583671032048,0.535414457321167,-0.779308670926204,3.20032437480506
0.17,1.62234305159505,93.2980523463105,93.702151615263,-0.017560847653142,0.57996029188021,0.621673047542572,-0.00767953741949107,3.18910085810864
0.18,1.72001823157773,93.2947829601741,93.702151615263,-0.0603871152454944,0.469215222924291,0.495256155729294,0.265173071380124,3.07956166032762
0.19,1.81769024559677,93.2625127596284,93.702151615263,0.0141734532724295,0.465998613330193,0.497810781002045,-0.180584732980406,3.10772585476315
0.2,1.91536020145081,93.2072547803859,93.702151615263,-0.0652724611945962,0.462938614957511,0.504780352115631,0.306001061455865,3.18666822152705
0.21,2.01303239354963,93.3335992007388,93.702151615263,-0.023998793520626,0.4397873606563,0.526045024394989,0.0752275848258646,3.44098058688983
0.22,2.1107025227286,93.263945158456,93.702151615263,0.0327502022281227,0.51466150175287,0.554920136928558,-0.268710105736769,3.16389990243163
0.23,2.20837345940233,93.2828634423529,93.702151615263,0.034387929528012,0.546831969034561,0.501796364784241,-0.280399988955433,2.67688715784021
0.24,2.30605213912306,93.3067458362727,93.702151615263,-0.035379295066516,0.48785860256395,0.499427825212479,0.159862277084521,2.98734862078554
0.25,2.4037162543835,93.2653637113352,93.702151615263,-0.0242271967316482,0.628568253557818,0.597497284412384,0.0932128793562084,2.74070099402674
0.26,2.50139409129605,93.2840623820678,93.702151615263,-0.00913588719235282,0.529375185015423,0.492545455694199,0.00021386990248367,2.71169672429107
0.27,2.59907197535127,93.3167327822295,93.702151615263,-0.0324918575081544,0.523202683643463,0.512872874736786,0.182966403670659,2.83934842488998
0.28,2.69673997042823,93.2787496172245,93.702151615263,-0.0379901255142362,0.626259361166807,0.580658435821533,0.17975801761656,2.63879366203491
0.29,2.79440269719406,93.3195467465507,93.702151615263,-0.0325238889438605,0.587826433533603,0.630016386508942,0.142632552993143,3.19571304027536
0.3,2.89207527316182,93.3411708672002,93.702151615263,0.0155116166073015,0.524816400766302,0.544011831283569,-0.132969877578418,3.03574842932197
0.31,2.98974926502915,93.2893061291628,93.702151615263,-0.0191300627478563,0.642240209483898,0.605677366256714,0.0557850001985234,2.70438894107047
0.32,3.0874246742049,93.2168631728248,93.702151615263,-0.0564074712740196,0.386391582191977,0.475229412317276,0.259763344991373,3.46706010414283
0.33,3.18509740139756,93.2723854077222,93.702151615263,-0.0415299266318075,0.510692388663288,0.53819352388382,0.192858131685651,3.07434516106825
0.34,3.28278052534134,93.217734791845,93.702151615263,0.0300414308735855,0.478924164419831,0.507562339305878,-0.239831696519765,3.08032775133742
0.35,3.38045305777902,93.3445162488215,93.702151615263,-0.0110053058861552,0.53554826075175,0.527517199516296,0.00517837770851032,2.86605649692012
0.36,3.47811347268111,93.2391270291287,93.702151615263,0.067056034641254,0.602994287896756,0.582419216632843,-0.441387210792622,2.78936741009494
0.37,3.57579892211899,93.2962882010532,93.702151615263,0.0121938230401269,0.495189298727758,0.485777974128723,-0.1540492532646,2.85473577053293
0.38,3.67346539717083,93.2982021572704,93.702151615263,-0.00312336292010715,0.485057329605312,0.553653955459595,-0.0806576831571526,3.33541871934258
0.39,3.77113133902519,93.3257328007945,93.702151615263,-0.117994663214386,0.535034298290381,0.510850667953491,0.660430509505627,2.77098551655172
0.4,3.86880691883509,93.312987089336,93.702151615263,0.0467042211728386,0.525327311396354,0.54610538482666,-0.338418914179417,3.04942831605275
0.41,3.9664789415755,93.3042930104926,93.702151615263,-0.0638133511628004,0.537573404215152,0.508891344070435,0.295372850737103,2.74742939201306
0.42,4.06414095983686,93.2405386170832,93.702151615263,-0.00449999184444011,0.49412167870919,0.532527208328247,-0.026277997516804,3.15624166114048
0.43,4.16181936890545,93.3027213879053,93.702151615263,0.00624059993805959,0.50493425170087,0.532507359981537,-0.111120870486559,3.09864029140537
0.44,4.25948987128188,93.323472274235,93.702151615263,0.0634082736273693,0.587612296015794,0.576163053512573,-0.485056515141273,2.85970689305716
0.45,4.35716673082115,93.263811427975,93.702151615263,0.0245765851083918,0.54250204249263,0.500580489635468,-0.237083178581886,2.66566815226471
0.46,4.45485105697402,93.2736011437004,93.702151615263,0.0547790145602277,0.573039338419672,0.582943320274353,-0.401399800643045,2.97428532795021
0.47,4.55251011622206,93.3512844258573,93.702151615263,0.0191526600592985,0.558210540921029,0.64552366733551,-0.225664955047689,3.44430356710014
0.48,4.65018675349709,93.258477027198,93.702151615263,-0.0285312251711425,0.501441754783031,0.524165332317352,0.101782857889219,3.0516821750525
0.49,4.74786482088519,93.251190963343,93.702151615263,0.0549902406272639,0.494673599258872,0.534838438034058,-0.383484778056755,3.16383009111289
0.5,4.84552940898371,93.3193498891643,93.702151615263,0.075306266442731,0.629542585316687,0.60189014673233,-0.549184276642719,2.75045161905994
0.51,4.94320859939785,93.2649731347752,93.702151615263,0.0451735444556638,0.616943813102974,0.573415696620941,-0.337223793060033,2.6537416408921
0.52,5.0408899721209,93.2748593586439,93.702151615263,0.0204467703331171,0.509740717063319,0.540898859500885,-0.173959647185208,3.10605973564934
0.53,5.13854939680674,93.2431845173627,93.702151615263,0.0430841890253158,0.491948007534198,0.563360452651978,-0.336090120769148,3.34287866479153
0.54,5.23621654353151,93.2762997756865,93.702151615263,-0.0752236665571726,0.504507249806392,0.516153454780579,0.409985461329399,3.00065742757175
0.55,5.33389242160368,93.2931720010612,93.702151615263,0.0115230827029383,0.504884515837245,0.55420845746994,-0.105756270137044,3.23068619897444
0.56,5.43155492315135,93.3145361408845,93.702151615263,-0.00939761166058795,0.659274764983266,0.6258784532547,-0.0150716584294796,2.7254315411679
0.57,5.5292311608201,93.3210487605434,93.702151615263,0.0405208440051289,0.64438603421774,0.590279042720795,-0.289695989420917,2.60884431275837
0.58,5.62690599736434,93.3084551985447,93.702151615263,0.00230311009478341,0.484718794117719,0.537945628166199,-0.0629026471981909,3.25246060643671
0.59,5.724583885701,93.3130672430958,93.702151615263,-0.0228017130628553,0.580382830654744,0.554038763046265,0.0762680818137629,2.74961939409843
0.6,5.82225653581536,93.2937160183718,93.702151615263,-0.00146041460992256,0.521126819752947,0.567241251468658,-0.0510856212994922,3.20066018960166
0.61,5.91993627966886,93.2913417819922,93.702151615263,-0.00856814864060332,0.412554875239339,0.497236669063568,-0.00711030330706117,3.42425104451613
0.62,6.01760716523396,93.2814178690795,93.702151615263,0.0325686804539715,0.529627144018135,0.571097075939178,-0.283361460848471,3.1507084811794
0.63,6.11528010754379,93.247517202413,93.702151615263,-0.0208197050542668,0.617128699543448,0.592542350292206,0.0657248680299951,2.77616693463159
0.64,6.21296024301576,93.2305071779677,93.702151615263,0.0074696030829681,0.335025278038648,0.383234560489655,-0.0845857608677445,3.19814491023562
0.65,0.0274439561286393,93.2658943833436,93.702151615263,0.122527499509089,0.484422987058614,0.509318172931671,-0.819172012784876,3.04804548581302
0.66,0.125112486537002,93.2361415236644,93.702151615263,-0.120734009442891,0.471604000273503,0.499023109674454,0.659257333874586,3.09120125506453
0.67,0.222784965681856,93.36031242656,93.702151615263,0.0331463311641503,0.47664109788462,0.475708931684494,-0.242664484433486,2.90721157528871
0.68,0.320455105217103,93.2640276330309,93.702151615263,0.0738904401035344,0.509875614613837,0.557258784770966,-0.515002802413191,3.19053839513061
0.69,0.418127493005318,93.2726204066285,93.702151615263,0.0463034337761768,0.544725898880748,0.4985231757164,-0.358044566536997,2.65479045553567
0.7,0.515807139029601,93.3565459894057,93.702151615263,-0.0431592213820434,0.534119110818902,0.558065950870514,0.208946506733686,3.0488782383217
0.71,0.613482791672459,93.3024934212508,93.702151615263,0.062533691131496,0.534509005907769,0.539923250675201,-0.445330059777115,2.92888647075197
0.72,0.711144695318263,93.3225847395803,93.702151615263,-0.0472755019617501,0.557852271688932,0.587079346179962,0.247159824400205,3.10281423900797
0.73,0.808815805340378,93.2386352840664,93.702151615263,0.0317056367154375,0.423403221733021,0.505094468593597,-0.190345908275468,3.40122692143562
0.74,0.906493858001244,93.245905476174,93.702151615263,0.0391478361812946,0.50017512772456,0.542359113693237,-0.257072125568194,3.1566254182741
0.75,1.00415811884131,93.2306018521171,93.702151615263,0.0190161492459996,0.594512378267682,0.546460628509521,-0.152448532423208,2.64541295078616
0.76,1.10182394659848,93.2358536877522,93.702151615263,-0.0356277804986169,0.46302464138393,0.47728043794632,0.208827941308108,3.0059923789501
0.77,1.19949231904447,93.2170164178741,93.702151615263,0.0678595128981399,0.483304513545448,0.523058891296387,-0.434954132950045,3.17281256282943
0.78,1.29717318210998,93.3320534041344,93.702151615263,0.00260391922038061,0.570834010762659,0.557387828826904,-0.020889502459098,2.85646608255167
0.79,1.39484951896019,93.3108647337134,93.702151615263,0.0265347198437664,0.528525116045345,0.565734922885895,-0.13172913165727,3.13367922989304
0.8,1.49252007253255,93.2207696848948,93.702151615263,-0.0367993514926478,0.591085774438072,0.53569096326828,0.233385836447578,2.59114366043464
0.81,1.5901778767034,93.2560973389901,93.702151615263,-0.052177054633364,0.465408270319971,0.53383070230484,0.295740833232486,3.3680711753961
0.82,1.68783750645484,93.3301146097762,93.702151615263,-0.045963481974867,0.586061817466188,0.580173790454865,0.280589873910116,2.91956942488946
0.83,1.78552555945069,93.281612755943,93.702151615263,0.0408268680898631,0.497154917681316,0.498471140861511,-0.266265330122063,2.94713089633881
0.84,1.88319825189136,93.2923191715821,93.702151615263,-0.0663461755337887,0.470603109238638,0.544498026371002,0.344449479891495,3.38653634835156
0.85,1.98085858734474,93.2988962476607,93.702151615263,-0.0490450548083016,0.546080358255614,0.577494621276855,0.283877043323001,3.12936274542285
0.86,2.07854494034431,93.2983122594708,93.702151615263,0.0105826085565456,0.523745061345967,0.509138524532318,-0.0820369087845858,2.84930418316241
0.87,2.17621787604388,93.361076027888,93.702151615263,0.0632642062861434,0.575382644274689,0.526055932044983,-0.463799053474873,2.64006148019291
0.88,2.27389668023372,93.3207808124845,93.702151615263,-0.0967688255795421,0.55451113845635,0.561592996120453,0.54371283418484,2.95614895061482
0.89,2.37158709224055,93.2689452044534,93.702151615263,0.0287511736733143,0.484958777434903,0.487207174301147,-0.221019396022818,2.91581554357762
0.9,2.4692515784569,93.2154664191343,93.702151615263,0.00987689598880185,0.433737809115265,0.489242404699326,-0.154181021172259,3.2373185200541
0.91,2.56691702769644,93.2785916335068,93.702151615263,-0.0100121112829671,0.510422613535175,0.539018154144287,0.0219649646605962,3.07922595411948
0.92,2.66459251254718,93.2625276103763,93.702151615263,0.0648160390019074,0.583952184564771,0.612494587898254,-0.407454713929008,3.08976288937734
0.93,2.76225496373976,93.3068261363844,93.702151615263,0.0235132525883153,0.497286232970697,0.568325102329254,-0.228521709706482,3.35074714975433
0.94,2.85993510536,93.277054171372,93.702151615263,-0.0897917326483876,0.516463895792419,0.520959913730621,0.46335990210906,2.93181092011775
0.95,2.95761192238875,93.2668623106871,93.702151615263,0.0740210638497104,0.498639274767973,0.504081785678864,-0.533805338634904,2.94709531413342
0.96,3.05527425435745,93.2464060565392,93.702151615263,0.00950628412693239,0.513237806387154,0.589335381984711,-0.197354813099609,3.37056196133799
0.97,3.15294021750251,93.2839016164575,93.702151615263,-0.0103646549053034,0.526607632830821,0.556570291519165,-0.0366205268151556,3.10734712355488
0.98,3.25061344166047,93.3096899965644,93.702151615263,0.0626557913632396,0.538010317663541,0.57915598154068,-0.48264365937666,3.18546606151624
0.99,3.34827761003066,93.2519847261976,93.702151615263,0.0832155972775628,0.472325397254434,0.518760502338409,-0.618438576764115,3.20626487442327
1,3.44594514940311,93.251262482595,93.702151615263,0.039045821397033,0.596267516222782,0.540510654449463,-0.317226415627638,2.60368064030753
1.01,3.54363250691586,93.3012750918268,93.702151615263,-0.0473792045612998,0.600932591687639,0.597298324108124,0.226588285621496,2.90941026243819
1.02,3.64129605290791,93.2113344793954,93.702151615263,0.0565606442926745,0.479322121716163,0.545755326747894,-0.40368084922512,3.31928681651013
1.03,3.7389700859367,93.2829906724092,93.702151615263,-0.00582888180727825,0.626268107429016,0.580581068992615,0.00586455801272246,2.65878428645739
1.04,3.83664567561626,93.3220572035848,93.702151615263,0.0765541228456917,0.509586626237747,0.504671037197113,-0.492511809541073,2.90711939152554
1.05,3.9343189408532,93.238729769689,93.702151615263,0.0125664582377961,0.49550739867059,0.532586395740509,-0.158654227538929,3.13882568603973
1.06,4.03198948144389,93.2913619187982,93.702151615263,-0.0586267815076483,0.522590687930049,0.552608966827393,0.295301799801059,3.12242741585611
1.07,4.12966642808268,93.3681628028129,93.702151615263,-0.00299063039295425,0.491135293500365,0.502443552017212,-0.0530417499108897,3.00858685858273
1.08,4.22733383593054,93.2431957353433,93.702151615263,0.0478718863009307,0.490503183863623,0.52315491437912,-0.386469380531923,3.12032197153259
1.09,4.32501041006859,93.2385708348751,93.702151615263,-0.039115986764949,0.485473194791924,0.506412327289581,0.168399613257792,3.06582586536205
1.1,4.42267870237912,93.3045151924051,93.702151615263,-0.0109810482155933,0.503443327806138,0.519626140594482,0.00914966176599861,3.0374007600726
1.11,4.52035265505159,93.2918915928703,93.702151615263,0.11399302451315,0.489284367862447,0.522158145904541,-0.752047487672061,3.11491357704355
1.12,4.61802234691036,93.2915382765367,93.702151615263,-0.0255904097963194,0.523203023236578,0.57306295633316,0.0913972412504797,3.23998326709453
1.13,4.71570306189705,93.3214020338045,93.702151615263,0.0311183592385521,0.502362525258906,0.530056297779083,-0.234000763455768,3.09231011227592
1.14,4.81337080755615,93.211837044561,93.702151615263,0.0906977227106428,0.472059012577381,0.525418221950531,-0.615600586933985,3.24223323583489
1.15,4.91103673562435,93.3214486808219,93.702151615263,0.0571729921344434,0.570864564680689,0.51811546087265,-0.426386622275442,2.63368906411056
1.16,5.008714425374,93.345578933094,93.702151615263,-0.0126635156373477,0.438256805935917,0.533293902873993,0.0277240140741822,3.49980182238097
1.17,5.10638949363237,93.2697052045368,93.702151615263,0.0730059580151312,0.496893565060736,0.517533659934998,-0.524845371434638,3.03891097634765
1.18,5.20406457427739,93.3243533792166,93.702151615263,-0.0536587267495121,0.598179858787085,0.639902412891388,0.247289302924385,3.18733365704372
1.19,5.3017399174729,93.2820547228893,93.702151615263,-0.00227846050348496,0.491967033688923,0.516443848609924,-0.0397844610194509,3.06418083094573
1.2,5.39941691285625,93.2926260738644,93.702151615263,0.0585079190299512,0.525566556791728,0.517699897289276,-0.391316609170683,2.86118729980601
1.21,5.49708574112439,93.3153695394515,93.702151615263,-0.0623902629750494,0.630534979743387,0.60597962141037,0.312018803238142,2.78919434540985
1.22,5.59476040076549,93.2971269345861,93.702151615263,-0.0168637831656855,0.549946242118054,0.608827829360962,0.0697248588072548,3.26276971184171
1.23,5.69244658150221,93.2844698549155,93.702151615263,0.00557202338681723,0.527075020935465,0.558989763259888,-0.0905708475899985,3.08359665218291
1.24,5.7901184145523,93.3051599727963,93.702151615263,-0.00597537226060704,0.530936377358103,0.594741404056549,-0.0023967690418403,3.29593181487324
1.25,5.88778531912144,93.326010598836,93.702151615263,0.0162492183655313,0.537842986240307,0.587224066257477,-0.128455712335956,3.19535300587717
1.26,5.98546452512678,93.2336549946224,93.702151615263,0.0132233234651209,0.493266237846867,0.535511612892151,-0.115290659917601,3.14736619884838
1.27,6.08311471093525,93.2083203021691,93.702151615263,-0.0573628110826027,0.465853880979631,0.540189146995544,0.294702057452032,3.38492502804039
1.28,6.18078332720648,93.3262433489077,93.702151615263,-0.0180283228200525,0.510199409991108,0.492044985294342,0.0951125935041241,2.81093509019491
1.29,6.27845601585787,93.2301497084282,93.702151615263,0.057444799484171,0.485958854868912,0.514427363872528,-0.365226207417776,3.09922258577778
1.3,0.0929334959380235,93.2371964459137,93.702151615263,-0.0491304759228085,0.450350259162257,0.536042153835297,0.243348159770473,3.46973226566388
1.31,0.190606610677618,93.2725493027926,93.702151615263,-0.0642208272985862,0.513041758601547,0.534001111984253,0.393638216833167,3.05681005751962
1.32,0.288288149787688,93.2890603662704,93.702151615263,0.0110299518120877,0.536840835441594,0.530435681343079,-0.0657074403995468,2.8910014983916
1.33,0.385960076880128,93.2963345121676,93.702151615263,-0.00253258319094454,0.582364247903685,0.570195734500885,-0.00798699799883018,2.8625856962404
1.34,0.48363329574495,93.3243424685592,93.702151615263,-0.0827921502088793,0.537759966776587,0.533636629581451,0.507437778478185,2.89013300483864
1.35,0.581311155259009,93.2894203563422,93.702151615263,-1.70164331638745e-05,0.521830095132519,0.569885015487671,-0.0113599590245115,3.21217649550268
1.36,0.678978256115091,93.3102218254458,93.702151615263,0.0659597394333321,0.560114361834773,0.50674569606781,-0.469134890201487,2.60859077569247
