t,theta,omega,r,i_d,i_q,i_q_ref,v_d,v_q
0,0,0,49.7691089281911,-8.88650208451486e-25,0,0,0,0
0.01,0.040511739490027,49.422289760781,49.7691089281911,0.0541537725123628,-0.0500605303516652,-0.315026074647903,-0.340777399554434,-0.136267550306571
0.02,0.0923117234266009,49.4931395556683,49.7691089281911,-0.0247545180880293,0.313044119593069,0.359168648719788,0.128573482103589,1.84284059928129
0.03,0.144116999966978,49.5135231818658,49.7691089281911,0.0463372448070875,0.378240954788027,0.357939779758453,-0.30202657249,1.51709598394116
0.04,0.195942588512296,49.4882332223108,49.7691089281911,-0.00537439272337302,0.281733135208673,0.269004017114639,0.0452522972904936,1.59158400689894
0.05,0.247785611421108,49.5224158028287,49.7691089281911,0.0474874177364742,0.370269629606147,0.383817672729492,-0.28206402443512,1.79517926612165
0.06,0.299619030169076,49.518980033826,49.7691089281911,-0.0340261754284148,0.377249325234302,0.349295645952225,0.171925241785564,1.56418474624542
0.07,0.351454379496881,49.5109736682337,49.7691089281911,0.0888685754899678,0.360880073411704,0.375307321548462,-0.536874263933282,1.83584928644587
0.08,0.403295137936998,49.4501674296759,49.7691089281911,-0.0569956222134841,0.28183787027528,0.299097001552582,0.32747641660329,1.89949149627993
0.09,0.455135025111668,49.5331625897951,49.7691089281911,0.04580528496345,0.380626921672818,0.351039618253708,-0.308945438813108,1.62337952305411
0.1,0.506973717952585,49.5990083678075,49.7691089281911,-0.0695341832975898,0.41786021704737,0.363800704479218,0.42991676216325,1.49016590496521
0.11,0.558845698985722,49.5154575148118,49.7691089281911,0.0678720272952733,0.1995324248136,0.191296324133873,-0.410076088956527,1.76227885272213
0.12,0.610691741472737,49.4690368040108,49.7691089281911,-0.0402952135866829,0.328398470275299,0.31682550907135,0.234718975023055,1.72675707730205
0.13,0.662530508093334,49.4778196739949,49.7691089281911,0.0983651872883791,0.267717158538648,0.306117236614227,-0.599306385613839,2.04828329080819
0.14,0.714388661294063,49.502735606745,49.7691089281911,0.0384345287824934,0.254873623323692,0.269579529762268,-0.23921897676024,1.91891632444521
0.15,0.766239033242646,49.4844554334086,49.7691089281911,-0.0672052283000412,0.371660805077998,0.345906019210815,0.370886189375615,1.65481071262324
0.16,0.818092171794141,49.5250700597694,49.7691089281911,-0.0183325496822431,0.248611067382901,0.270085215568542,0.12386006178719,1.93862073191855
0.17,0.869942221450578,49.4945993514095,49.7691089281911,0.0442643005619369,0.344229363762201,0.275726944208145,-0.298316155936566,1.41617658327002
0.18,0.921786073496878,49.4600803956187,49.7691089281911,0.0148335291082593,0.33209462208928,0.294291764497757,-0.107848179614591,1.58883459512972
0.19,0.973644940368914,49.5912535898616,49.7691089281911,-0.0125007312086908,0.211603918780769,0.229169711470604,0.0496899560127908,1.92996889022745
0.2,1.02547608157043,49.4971040340242,49.7691089281911,0.0124533346289723,0.341413471998515,0.283873081207275,-0.050077513143425,1.51786603458337
0.21,1.07731816315147,49.5428431316001,49.7691089281911,-0.04190204412218,0.3081125889274,0.310167014598846,0.269832841740793,1.87068447064101
0.22,1.12917911044252,49.5522681432051,49.7691089281911,0.0229126199852636,0.423341362465447,0.403396815061569,-0.0953218128850402,1.7374320290597
0.23,1.18103559913311,49.4700487485661,49.7691089281911,0.0309003599103756,0.338012855990484,0.295169353485107,-0.190487448888015,1.59654690297636
0.24,1.23288239470876,49.5348078681193,49.7691089281911,0.0743526875786173,0.366572393448365,0.341573446989059,-0.436107454088582,1.69058892499657
0.25,1.28473346207622,49.5622773456526,49.7691089281911,-0.0454356227889691,0.270231269484785,0.241797760128975,0.255792716518211,1.69739452851612
0.26,1.3365841564495,49.5453421322247,49.7691089281911,0.0185157209750752,0.411431166189594,0.366384118795395,-0.129930316736882,1.59322982466965
0.27,1.38844500774508,49.5192645529407,49.7691089281911,-0.029817480190227,0.25680414512851,0.265151739120483,0.179901128547906,1.87920094494421
0.28,1.44031365821344,49.558611059762,49.7691089281911,0.0804542014304284,0.402278622862429,0.36704209446907,-0.470406391720318,1.61527176029382
0.29,1.49217247161183,49.5111233423031,49.7691089281911,0.0167855003576099,0.261549670657615,0.289663016796112,-0.142387786627112,1.98127621078172
0.3,1.5440165791389,49.4516149697316,49.7691089281911,0.103707330539794,0.314113232538289,0.322308361530304,-0.644594126128165,1.85701973486286
0.31,1.59586432682681,49.5257872781229,49.7691089281911,-0.105409790343008,0.346489023030166,0.353886723518372,0.636044788076784,1.89250630097832
0.32,1.64770169129263,49.4553928416694,49.7691089281911,-0.0120670920896227,0.281558546425633,0.248973459005356,0.089425820620997,1.66351434050687
0.33,1.69954843698477,49.5396653147704,49.7691089281911,-0.066327887648459,0.404757506093867,0.368179470300674,0.433209473122022,1.63332539157301
0.34,1.75141993431849,49.4929797013803,49.7691089281911,0.0265193452023093,0.282428949962081,0.251810789108276,-0.150091325211372,1.66443334649606
0.35,1.8032702573946,49.4663142371006,49.7691089281911,0.036390573936517,0.319950218015628,0.304092019796371,-0.228631748803531,1.73873150642554
0.36,1.85511153590479,49.5436528849726,49.7691089281911,0.0340720775211084,0.317712490214172,0.308514356613159,-0.212080949448663,1.79004742372703
0.37,1.90696519521586,49.5491356904695,49.7691089281911,0.0304046116608504,0.344681216752013,0.326333940029144,-0.207153120639716,1.75749217066548
0.38,1.95881306000075,49.4916359420885,49.7691089281911,-0.0292832340785257,0.364713632601642,0.334917098283768,0.139226487980258,1.67343987764858
0.39,2.01067875913063,49.5040698197421,49.7691089281911,-0.0383978555540358,0.249713706567117,0.282627701759338,0.269685885342953,2.02802968442228
0.4,2.0625430846395,49.4906466364008,49.7691089281911,0.0811775904493763,0.352863630332525,0.277971476316452,-0.505435675041768,1.37985727650511
0.41,2.1143862700956,49.4798643079357,49.7691089281911,0.000229724629376843,0.326025608642801,0.312090396881104,-0.0119843920913755,1.73620098419643
0.42,2.16622574031021,49.5103567340247,49.7691089281911,-0.0426878531241048,0.311877006283952,0.337893158197403,0.237375693310408,2.00515616267936
0.43,2.21808171086166,49.5082595725055,49.7691089281911,0.0337275226265689,0.300114090865728,0.264900892972946,-0.244696450599295,1.646934539297
0.44,2.26993612291746,49.5235191887946,49.7691089281911,-0.0462672443001953,0.374480952337868,0.312044471502304,0.235595628147443,1.45424891518472
0.45,2.32179846248139,49.5382407508751,49.7691089281911,0.00396742198378092,0.312550130095511,0.391030043363571,0.000752536249537687,2.29688588384503
0.46,2.37365878358036,49.4815886755975,49.7691089281911,0.0244667644275757,0.327134588959253,0.308010846376419,-0.182677401929399,1.70206242922707
0.47,2.425513234109,49.4962590350947,49.7691089281911,-0.0432727795394028,0.199206340819096,0.220305740833282,0.251431816382313,1.92112150427354
0.48,2.4773513913917,49.4593912334541,49.7691089281911,0.0642382839200418,0.257513088490021,0.279615998268127,-0.43481514160154,1.96347118227893
0.49,2.52920955491645,49.5563893467887,49.7691089281911,0.0267832396835521,0.38310338073759,0.328470289707184,-0.220917393332439,1.49409573108586
0.5,2.581051135314,49.4877741291252,49.7691089281911,-0.0672824892241788,0.348405543939651,0.31517618894577,0.363464008916314,1.61770541743551
0.51,2.6329099990789,49.5068256407289,49.7691089281911,0.00439373419011305,0.413749168280333,0.424688369035721,-0.0331361796070834,1.89433391384259
0.52,2.68477351365064,49.462083984598,49.7691089281911,0.000652610315134548,0.33416424900949,0.287599831819534,-0.0575242449883115,1.52611248599789
0.53,2.73661595859982,49.4811572818677,49.7691089281911,0.0805063519469228,0.323472141061677,0.300490736961365,-0.518981375846772,1.66675822362724
0.54,2.7884573684002,49.4658254000489,49.7691089281911,-0.127047907976046,0.298802231384211,0.292780309915543,0.718266857182204,1.81071697714931
0.55,2.84029835861717,49.5195745286932,49.7691089281911,-0.0369914947823813,0.336101576001562,0.369586765766144,0.185475122819525,2.05178994705916
0.56,2.89214616811579,49.5845675029504,49.7691089281911,-0.067682366161519,0.436555001482798,0.362864315509796,0.388437226257868,1.39668658233838
0.57,2.944019046716,49.5302107501602,49.7691089281911,0.0728583006528902,0.327604233117925,0.284525364637375,-0.449725611868279,1.57377457697515
0.58,2.99587046086623,49.5404603601774,49.7691089281911,-0.0561156402242928,0.384079623165807,0.344100922346115,0.302007379635267,1.5773873052636
0.59,3.04771279230104,49.5305831931688,49.7691089281911,-0.0609468572814237,0.331968301641592,0.342211276292801,0.343698313504084,1.88264921111267
0.6,3.09956523600781,49.588229041064,49.7691089281911,0.099325275460432,0.232177190546451,0.231928840279579,-0.630686582162201,1.8462753554298
0.61,3.15140885907821,49.5386273222101,49.7691089281911,-0.0535101085754866,0.378226297684062,0.315707743167877,0.257461792727468,1.46346168607137
0.62,3.20325968785942,49.5716232855141,49.7691089281911,-0.0665218259478145,0.396199698820293,0.326125770807266,0.39667296082266,1.41359869553092
0.63,3.25512861370204,49.5373914829557,49.7691089281911,-0.00694412283052023,0.332583820874755,0.362378627061844,0.0178311313237668,2.01300630573105
0.64,3.30696798910445,49.509902690323,49.7691089281911,0.00940622315346867,0.325969453241842,0.350834727287292,-0.0787880384111275,1.98016925952637
0.65,3.35881735131326,49.4584839385132,49.7691089281911,-0.0580595281797581,0.263959690098169,0.293531984090805,0.34846605946716,2.01401252827513
0.66,3.41066892832621,49.5083865069505,49.7691089281911,0.0464399370024579,0.333841277152123,0.309268355369568,-0.269599224318894,1.71106824012275
0.67,3.46251621927507,49.556235823468,49.7691089281911,-0.005854404580593,0.382355424444392,0.330994844436646,0.0288176943447765,1.53495705989036
0.68,3.51439407715607,49.4037834215055,49.7691089281911,-0.00389347441576626,0.143584261920925,0.176562443375587,0.0603055629771137,2.01029779733273
0.69,3.56624953476891,49.487724622384,49.7691089281911,0.0550162761668543,0.346758170362871,0.288609564304352,-0.333476177928155,1.46696579257174
0.7,3.61808748165007,49.544609596546,49.7691089281911,0.0241938529720857,0.376130734973968,0.336447685956955,-0.141398520464559,1.57572554777199
0.71,3.66993456557705,49.5143129016534,49.7691089281911,-0.0590483246243316,0.299053061584268,0.345459997653961,0.345514910802938,2.12088766391156
0.72,3.72178911664907,49.4775067180985,49.7691089281911,0.039093349300786,0.3397130013161,0.298059821128845,-0.276582077448959,1.59081262176042
0.73,3.77363228984896,49.565926890774,49.7691089281911,-0.00468557894271371,0.384336333116725,0.339439213275909,-0.00693570942041669,1.56473007730242
0.74,3.82549866024671,49.5407267297685,49.7691089281911,0.0291228920323287,0.334334025177635,0.330650329589844,-0.15337797563461,1.81319637118389
0.75,3.87736118518447,49.4826565997837,49.7691089281911,0.0243054124785218,0.336555881011132,0.27179491519928,-0.187636032395429,1.4296831653328
0.76,3.92921044852296,49.4900227537688,49.7691089281911,0.0547685132514145,0.328360761664491,0.289399981498718,-0.33971711339611,1.5677664839707
0.77,3.98105774016663,49.5386466574944,49.7691089281911,-0.0843867535242396,0.27954810867529,0.271340876817703,0.491940661306042,1.78509250088296
0.78,4.03290245521332,49.4634632587213,49.7691089281911,-0.0238042260548162,0.332705734501493,0.289358109235764,0.12123471841393,1.5779474655269
0.79,4.08476198538526,49.5028283699136,49.7691089281911,-0.0727925756027305,0.311026350170361,0.240501374006271,0.450103250371713,1.38536086984751
0.8,4.13662446528439,49.4774176859116,49.7691089281911,0.0563151970600223,0.248337500891406,0.274862945079803,-0.300983616831633,1.97791744387529
0.81,4.18847095484864,49.468752481534,49.7691089281911,-0.0484321957887188,0.359602007610488,0.349507033824921,0.295810587611897,1.75410865799351
0.82,4.2403056188779,49.5098112732225,49.7691089281911,0.0836790821518872,0.358768094306579,0.364791810512543,-0.507798944747359,1.86388990584299
0.83,4.29214868088231,49.4992477777225,49.7691089281911,-0.104244843793135,0.333217760715802,0.321530073881149,0.622662750644465,1.79978692765661
0.84,4.34400043216848,49.4564017552832,49.7691089281911,-0.00312887599110259,0.281652456934172,0.247363477945328,0.000435719987813669,1.64747627208585
0.85,4.39586176181067,49.5081027275524,49.7691089281911,-0.0510047506944195,0.303830887134397,0.227328285574913,0.340124641356329,1.37256276206206
0.86,4.44773388242696,49.518909180769,49.7691089281911,0.0987649469477381,0.335223797766736,0.296111971139908,-0.585753591754162,1.59159867108908
0.87,4.49957831555276,49.49914237856,49.7691089281911,0.0371626311943461,0.322229707708231,0.358787059783936,-0.223208864282553,2.03817505345655
0.88,4.5514246731676,49.5500805445163,49.7691089281911,0.0479196722655518,0.323608881129566,0.347977131605148,-0.266313369320771,1.97515073426285
0.89,4.60326654564301,49.4764738617536,49.7691089281911,-0.0403799867149043,0.33275029461162,0.313065469264984,0.277726361105374,1.74916359399354
0.9,4.65511717331677,49.4793752136169,49.7691089281911,-0.0443788920285381,0.343434771079515,0.282596975564957,0.267519731932266,1.48239801132032
0.91,4.70698414164105,49.5325995675939,49.7691089281911,-0.023008654455665,0.317727840629511,0.275021910667419,0.191424394853953,1.57483604580035
0.92,4.75884554343006,49.4906070939806,49.7691089281911,0.0311632890361375,0.341158538471189,0.298001646995544,-0.192404644022176,1.57297814976911
0.93,4.81068706881549,49.4745865000884,49.7691089281911,0.0167550147795102,0.319641749851928,0.302949011325836,-0.102348086052205,1.72636268461376
0.94,4.86253242119891,49.5476480762963,49.7691089281911,0.0100855998739858,0.303599858754168,0.336322724819183,-0.0770447077017988,2.04813281459606
0.95,4.91437928836956,49.5002398005696,49.7691089281911,-0.0120318823452828,0.368171635522999,0.356677293777466,0.0714678105288613,1.80236258487156
0.96,4.96622382687862,49.4916642280117,49.7691089281911,-0.0849866712248652,0.364145123979298,0.305466324090958,0.505476388195419,1.50736800659139
0.97,5.01809358996172,49.5018343759559,49.7691089281911,0.0123159576468552,0.295050619491723,0.254887580871582,-0.0298422817992992,1.60899596267407
0.98,5.06994917724955,49.5453154620078,49.7691089281911,-0.0275201342058882,0.278275520860575,0.311826556921005,0.162229236208415,2.04672774030473
0.99,5.12179306330979,49.5252373389825,49.7691089281911,-0.0125584891131906,0.304322340644049,0.264629721641541,0.102980425603294,1.59927926335672
1,5.17363779773147,49.4766270864627,49.7691089281911,0.0753920913297238,0.270696264024302,0.289958208799362,-0.449886111963612,1.98838772736272
1.01,5.22548474631514,49.4933339468533,49.7691089281911,0.0362417591328488,0.336369982472928,0.256999999284744,-0.202100840832329,1.40031600296763
1.02,5.27734026365276,49.5270222595966,49.7691089281911,-0.0427272375301438,0.257039674977511,0.255578845739365,0.285480474640033,1.84110122205115
1.03,5.32921420798253,49.5083869241358,49.7691089281911,0.0592085381279163,0.252677406926122,0.272365123033524,-0.323728713722212,1.95506997492675
1.04,5.38106476078554,49.4930452079916,49.7691089281911,-0.0433322941688846,0.32154393035303,0.353061437606812,0.248953200459664,2.02024727960641
1.05,5.43291662874333,49.4967723862904,49.7691089281911,0.119490005250479,0.336610133798389,0.3299380838871,-0.713612293607684,1.7752494297355
1.06,5.4847632687552,49.4998960469592,49.7691089281911,-0.106838284745632,0.339427640347381,0.362820565700531,0.656085931821741,1.9943113159353
1.07,5.53661529119371,49.5409573053963,49.7691089281911,0.0477698403288278,0.376533536224944,0.323093056678772,-0.290328786993048,1.52086217761486
1.08,5.58847210442388,49.5296765799028,49.7691089281911,-0.0480787780181791,0.365545219620049,0.342261970043182,0.325895086534331,1.68193539038882
1.09,5.64033037729423,49.5936042599284,49.7691089281911,0.0335342717930195,0.312875682965768,0.327923327684402,-0.188792599527264,1.9280661503077
1.1,5.69218049205982,49.5344227847285,49.7691089281911,0.0300153084401208,0.376016997204457,0.333254516124725,-0.187517460672861,1.56614916184201
1.11,5.74402376517968,49.4641816826834,49.7691089281911,0.0164623176408355,0.227965620602695,0.286509364843369,-0.108694080950021,2.18065291420888
1.12,5.79587259397968,49.5393792149919,49.7691089281911,0.104754671847515,0.30872094859204,0.286279529333115,-0.636012545236216,1.7247776056637
1.13,5.84772183290747,49.4619738026575,49.7691089281911,-0.0164976921268599,0.336388088043777,0.292034119367599,0.0620074674334073,1.57304292422154
1.14,5.89958349257544,49.5634585299265,49.7691089281911,-0.0508852782283816,0.391050338291262,0.331008315086365,0.334644998735893,1.46056155322572
1.15,5.95145321507168,49.5016767576232,49.7691089281911,0.0539666775866689,0.256622890505145,0.279159277677536,-0.346961975727121,1.95083046096913
1.16,6.00329829149991,49.4734762258289,49.7691089281911,-0.00232791211958119,0.337720203189786,0.289046585559845,0.00161322037779952,1.50973693550334
1.17,6.05514436274987,49.4937464752078,49.7691089281911,0.00840917421600279,0.189810735279282,0.255839973688126,-0.0592227974720544,2.2226943763583
1.18,6.10699206725583,49.4871168088531,49.7691089281911,0.0045599892807948,0.339956209637713,0.305027365684509,-0.033223305919479,1.63950257273877
1.19,6.15882969140909,49.5604307350791,49.7691089281911,0.0101398829229974,0.380449069382896,0.327245146036148,-0.0699303960557631,1.53164480870709
1.2,6.21070030410281,49.5523142116672,49.7691089281911,0.00177434098678306,0.283234595849534,0.354476064443588,0.0274634796067292,2.26186732431208
1.21,6.2625600371516,49.5246302701487,49.7691089281911,0.000824749540748224,0.36512598909309,0.31354033946991,-0.0114595124660639,1.52439009425665
1.22,0.031224110536483,49.4645119123623,49.7691089281911,0.0248112381835799,0.276018132334121,0.258744299411774,-0.132028569670308,1.71635625952407
1.23,0.0830762567700241,49.4740390095012,49.7691089281911,-0.0318167579603661,0.265803703344781,0.274000763893127,0.213065060649925,1.89124644685957
1.24,0.134917607154384,49.4960215761478,49.7691089281911,0.0438104181987451,0.360030047601475,0.322939783334732,-0.244190086235866,1.63868510152771
1.25,0.186768232565935,49.5280170740388,49.7691089281911,-0.0745174244227996,0.265138433909698,0.253910839557648,0.473861331107465,1.77494266777736
1.26,0.238635467454443,49.5105647572174,49.7691089281911,-0.00928765174124956,0.292701161636205,0.351837873458862,0.108246794153462,2.19286850886483
1.27,0.290483491372985,49.5444866972693,49.7691089281911,0.0210020228489821,0.412163513685316,0.369555830955505,-0.120998793905579,1.58050297372658
1.28,0.34233265817041,49.4982235535272,49.7691089281911,0.0883902314336995,0.343340929540695,0.332718938589096,-0.495723864662205,1.75687885091827
1.29,0.39418584620752,49.6050488853308,49.7691089281911,-0.0199277476020115,0.294399362456426,0.241897419095039,0.112891592988425,1.53380846752927
1.3,0.446031255825137,49.5034463728569,49.7691089281911,-0.0405541861773824,0.323578951070908,0.344911366701126,0.222588140210735,1.97601426955128
1.31,0.497878216122507,49.5242223250332,49.7691089281911,-0.00944707699466006,0.337437463406388,0.278976321220398,0.0661797770041641,1.48736926337253
1.32,0.549752093141477,49.5695085621703,49.7691089281911,0.0345264500799864,0.278259413292287,0.306681543588638,-0.195692807913619,2.01028878557578
1.33,0.601593076605342,49.5235342978786,49.7691089281911,-0.0531741148408109,0.378417630028152,0.345593690872192,0.302247157676898,1.64549922470895
1.34,0.653443808622492,49.5519379074718,49.7691089281911,-0.00498299561703809,0.26535907993241,0.307881712913513,0.0222996897400071,2.08886513421197
1.35,0.705290181026322,49.5428687506122,49.7691089281911,0.0491221658855683,0.357864201871094,0.373560339212418,-0.293547752082625,1.9617730916578
