t,theta,omega,r,i_d,i_q,i_q_ref,v_d,v_q
0,0,0,268.462728941598,-9.06168980266399e-25,0,0,0,0
0.01,0.0591824352107541,116.227936189861,268.462728941598,0.15416397432783,7.51138467488386,10,-1.0401930358231,18.7989969217616
0.02,0.242909447907484,232.318924528049,268.462728941598,0.221354779548765,7.6419387004924,10,-1.73082616018065,21.4978338741105
0.03,0.516851681107339,267.070825590153,268.462728941598,0.0590223930318211,1.57093420047562,1.77139437198639,-0.931811127984379,9.44582323279992
0.04,0.796512346789239,267.071958794429,268.462728941598,0.0272049814466407,1.64803612567313,1.78468203544617,-0.754789699619735,9.21192660322685
0.05,1.07619439475183,267.136070100361,268.462728941598,-0.0360354146847435,1.69898478859498,1.80201208591461,-0.364141061407432,9.12682975554536
0.06,1.35589633031251,267.046910251768,268.462728941598,0.00127804636182341,1.6800974102008,1.76895916461945,-0.603495943699933,9.13249351073498
0.07,1.63561326680034,267.084617380515,268.462728941598,-0.0257982968541316,1.65948293026313,1.70474171638489,-0.446761326093031,8.94002083080653
0.08,1.91534513832822,267.030139595098,268.462728941598,0.000477920109211993,1.46574785984181,1.49339592456818,-0.624165325746231,8.87765821496254
0.09,2.1950510023625,267.116821931965,268.462728941598,-0.0299896827314183,1.46920399761939,1.5663024187088,-0.455810132539901,9.3629622162318
0.1,2.47478251114895,267.224476990085,268.462728941598,0.0402074436287391,1.59236216867407,1.64449334144592,-0.865857408778276,9.11305980328327
0.11,2.75452417260672,267.118994937696,268.462728941598,0.00684983522984817,1.57559358326702,1.70500147342682,-0.663008903801883,9.57876769871721
0.12,3.03427295733828,267.139655841665,268.462728941598,-0.0162929970139847,1.56035434081447,1.63778042793274,-0.490333991321497,9.26814378469755
0.13,3.31399960495596,267.107640679048,268.462728941598,-0.122212163052095,1.73716772261132,1.70219552516937,0.150110857015659,8.63716445439315
0.14,3.59374379808516,267.126560908291,268.462728941598,-0.0152315951708301,1.68638936738001,1.70428168773651,-0.5116750246723,8.96779791519788
0.15,3.87349694419123,267.107775708087,268.462728941598,-0.0701013256106602,1.68582601811224,1.6562784910202,-0.163479803195273,8.68833502530382
0.16,4.15323856047098,267.096327102335,268.462728941598,-0.160962920359204,1.52110772080511,1.51475930213928,0.403496059307949,8.84692664334164
0.17,4.43299072020318,267.227771275685,268.462728941598,-0.0165080962845375,1.41009321302372,1.51928436756134,-0.469242576791188,9.54314188258202
0.18,4.71272711649219,267.266613151679,268.462728941598,0.0763044683306208,1.55703475563419,1.61868047714233,-1.02652648053406,9.26509609708493
0.19,4.99246951284533,267.146021286354,268.462728941598,-0.0286136150666862,1.56470193123886,1.62643492221832,-0.389599360111699,9.26721617037887
0.2,5.2722171290219,267.15283564622,268.462728941598,-0.0275017414809686,1.63004218236623,1.61643898487091,-0.430510537911712,8.80953335765359
0.21,5.55196509441276,267.132905911303,268.462728941598,0.0046345201824588,1.76528731207575,1.7196968793869,-0.624349085067278,8.63012371475063
0.22,5.83171212630625,267.134998719481,268.462728941598,0.052059358738143,1.81823892837943,1.75904488563538,-0.92953792499181,8.55807064846433
0.23,6.11146415971996,267.05011172232,268.462728941598,0.0527369043289113,1.66934666846626,1.61860954761505,-0.935998470887359,8.60859928979711
0.24,0.108027502718592,267.1699838748,268.462728941598,-0.0357003599358299,1.48650257714346,1.53605461120605,-0.392110388029087,9.2189225044056
0.25,0.387759128494156,267.220996289913,268.462728941598,-0.0358460951245303,1.50231599732341,1.62765967845917,-0.39572642691319,9.70034399936789
0.26,0.66751535984612,267.23748039649,268.462728941598,0.0352058031631442,1.55965733722968,1.58347308635712,-0.835347059986242,9.06285646258425
0.27,0.94726245951511,267.139156761025,268.462728941598,0.022383852974921,1.57671874364866,1.65714704990387,-0.757344848766679,9.39777957935078
0.28,1.22700283594818,267.102040474345,268.462728941598,0.100941207023152,1.62835170836906,1.69367229938507,-1.21125663548472,9.32252865513128
0.29,1.50676293518814,267.117469322022,268.462728941598,-0.02853501325191,1.74802692985345,1.70960164070129,-0.415787902904482,8.69222529934605
0.3,1.78652292471164,267.091557574819,268.462728941598,0.0203071595695024,1.70080338021907,1.65507197380066,-0.698133746668304,8.64644400023423
0.31,2.06627456344365,267.079325106628,268.462728941598,-0.0663336516607794,1.54294555395728,1.48868894577026,-0.195185114476171,8.60062350000374
0.32,2.34601664061305,267.232195790569,268.462728941598,-0.0244290532912654,1.52605225283451,1.56909275054932,-0.459226863402849,9.19449508971059
0.33,2.62576222381264,267.225555067862,268.462728941598,0.0687400399817032,1.57601732031533,1.65532302856445,-1.00685283998388,9.41053227295222
0.34,2.90551448899883,267.196586463139,268.462728941598,0.00414605935892282,1.58262358099427,1.66364192962646,-0.607306367293273,9.40026455237843
0.35,3.18526203619988,267.143098788175,268.462728941598,-0.02880489849946,1.66771934130779,1.67180275917053,-0.403763126819485,8.93832195466588
0.36,3.46501358358226,267.097866999227,268.462728941598,-0.0390734373971861,1.65546057764715,1.70096576213837,-0.341023692329808,9.18822670008319
0.37,3.74476738258978,267.097904232979,268.462728941598,0.0223745431026913,1.73470579415542,1.70140314102173,-0.698439645723777,8.71685751965467
0.38,4.02451917817148,267.091894155332,268.462728941598,0.0166414275093781,1.74100278633834,1.67489922046661,-0.668291722190181,8.52072753573373
0.39,4.3042792470023,267.130682873173,268.462728941598,-0.02821591638562,1.38820634414981,1.36976599693298,-0.423730744441319,8.80048640883132
0.4,4.58401221633171,267.228434723263,268.462728941598,-0.0167031628852067,1.49363780666266,1.60012102127075,-0.504839755059624,9.57208927108335
0.41,4.86376065197849,267.291596292672,268.462728941598,-0.00755520833509404,1.50314007481842,1.60819160938263,-0.556659094264574,9.55667160596358
0.42,5.14349224614144,267.159998639947,268.462728941598,0.0644891722947678,1.62266273683962,1.66849660873413,-0.960342194732676,9.21384543995147
0.43,5.42324737978621,267.121890613615,268.462728941598,0.0317481225803811,1.64575786144416,1.65511322021484,-0.770330726488075,8.98027317774376
0.44,5.70299985967284,267.107300102147,268.462728941598,0.00464833855984581,1.64509278880822,1.68940258026123,-0.617495555287807,9.1937362003973
0.45,5.98274373136986,267.083701261687,268.462728941598,-0.052887368367555,1.74589427164056,1.71630728244781,-0.278789646884837,8.76848847297637
0.46,6.26250181910391,267.11135544128,268.462728941598,-0.0423821553241677,1.56472478144947,1.58872175216675,-0.355849180132082,9.08276114054047
0.47,0.25907213584782,267.113966487949,268.462728941598,-0.00537118703591877,1.49895780654685,1.51806783676147,-0.584729790045437,9.05014200344707
0.48,0.538824184198827,267.276000022477,268.462728941598,-0.0210860694643623,1.51594889863028,1.60644352436066,-0.509485269333229,9.47262776521793
0.49,0.818575326921085,267.163678367823,268.462728941598,0.0458750367246621,1.54858776389552,1.66216421127319,-0.896256626929755,9.59025145271029
0.5,1.098311708737,267.149108632633,268.462728941598,0.0308375914052746,1.62531405894752,1.66275978088379,-0.797862884816718,9.14509134125181
0.51,1.37806401111163,267.104760138362,268.462728941598,0.0303675841190493,1.63825897376219,1.68191850185394,-0.78643624779125,9.17786375274719
0.52,1.65781749177338,267.112752643275,268.462728941598,0.117345615176808,1.80415128290983,1.77173936367035,-1.31419664777665,8.72174368460969
0.53,1.93756873519114,267.176531249457,268.462728941598,0.0816360517660097,1.83539431728093,1.77271890640259,-1.07331773258433,8.54623546407634
0.54,2.21731764898148,267.082484108597,268.462728941598,0.000110564183315676,1.57534339467727,1.52487885951996,-0.606056305376032,8.63057939935404
0.55,2.49707425072772,267.189721695781,268.462728941598,-0.0254674179979001,1.38651016193706,1.4401558637619,-0.470911870820756,9.24998018812276
0.56,2.77680330320238,267.280995073488,268.462728941598,-0.0300309096859986,1.54436838282905,1.66768801212311,-0.444048903867487,9.69605765066635
0.57,3.0565425072539,267.230432689344,268.462728941598,-0.00954125768312619,1.65306400665151,1.73716175556183,-0.568983224854819,9.45824054133709
0.58,3.33629730322717,267.135230657571,268.462728941598,0.10256402161383,1.60338224712092,1.64710903167725,-1.25186265925783,9.20126864144977
0.59,3.61604432600221,267.119449469776,268.462728941598,0.0783988512211729,1.62893190205291,1.65786695480347,-1.10941737446806,9.12212932374209
0.6,3.89579630146074,267.112058531915,268.462728941598,-0.0061028878927788,1.67656597739506,1.69823110103607,-0.57213912352652,9.07407493962142
0.61,4.1755514318541,267.10509900066,268.462728941598,-0.0155425898887707,1.63059952026837,1.64860200881958,-0.516916654118077,9.0508710326681
0.62,4.4552974284532,267.073078528563,268.462728941598,0.0602147789322109,1.48059477045855,1.47356963157654,-0.980896977123566,8.91470116921782
0.63,4.73505518195696,267.225084148932,268.462728941598,0.070438810435288,1.51706581805772,1.51971507072449,-1.04868081012031,8.95400028040589
0.64,5.01479795162453,267.203498762939,268.462728941598,-0.0173028760815946,1.60454767264684,1.67735278606415,-0.490489981995039,9.3766517535125
0.65,5.29455767243659,267.186772425573,268.462728941598,-0.00139850712974254,1.60630509050865,1.6795289516449,-0.593154481751823,9.34985601167097
0.66,5.57431436941459,267.135941907221,268.462728941598,-0.0357793967979977,1.66409367097713,1.68152463436127,-0.370789788761148,9.00280667864949
0.67,5.85406010632719,267.128820333095,268.462728941598,-0.0705474780631448,1.70024543413325,1.69618952274323,-0.169521908904378,8.89004910321463
0.68,6.13380931843939,267.138202398055,268.462728941598,-0.079266691394108,1.69609566180131,1.72817540168762,-0.114806903085356,9.11697113863659
0.69,0.130364837257012,267.086167137621,268.462728941598,-0.0926481535660935,1.55211106902958,1.53132772445679,-0.0385117212487833,8.81908384215907
0.7,0.410123494824475,267.169270267353,268.462728941598,-0.0162347744148823,1.400298312619,1.43183541297913,-0.505910231987538,9.12754833018957
0.71,0.689881302185086,267.262181514371,268.462728941598,-0.082466426035211,1.4735177762782,1.55187237262726,-0.116457125859075,9.39594492458778
0.72,0.969620706537768,267.227296059676,268.462728941598,0.0524599492177208,1.57734852637373,1.68862080574036,-0.937188330452395,9.59724014601623
0.73,1.24937362028358,267.112722741537,268.462728941598,0.0759322429709622,1.56646255383867,1.70154666900635,-1.0698350134263,9.72333118508151
0.74,1.52911417404441,267.074475162418,268.462728941598,0.0595822464280765,1.63313283902136,1.69548034667969,-0.969939215660933,9.30089434366709
0.75,1.80886226250404,267.112131203625,268.462728941598,-0.0297382709714646,1.74674610523694,1.69508218765259,-0.421492072863866,8.62657636111701
0.76,2.08862241306809,267.112656777256,268.462728941598,-0.0577527223616081,1.71362559343056,1.67295920848846,-0.256548930088691,8.68549064769758
0.77,2.36837974076731,267.092210718956,268.462728941598,-0.00884752018346802,1.55033507369036,1.58150625228882,-0.536254968743511,9.11172008374156
0.78,2.64813203146716,267.158866935799,268.462728941598,-0.00854125079663443,1.46668230079243,1.4515495300293,-0.53249328866303,8.83018366012716
0.79,2.92787451781393,267.279886194474,268.462728941598,0.0633043530155387,1.47756780687103,1.56081461906433,-0.961614480075431,9.42781724442408
0.8,3.20761389954882,267.171062353639,268.462728941598,-0.0106383769672505,1.58596879079951,1.69363355636597,-0.535063895293517,9.576054073653
0.81,3.48736381487635,267.157445427181,268.462728941598,-0.0254070520298695,1.60039380774446,1.6766369342804,-0.461315865135247,9.38656880914761
0.82,3.76711606021638,267.152827505676,268.462728941598,-0.0517892536240416,1.65584431636172,1.64943277835846,-0.305188664221266,8.88510457909451
0.83,4.04687906747219,267.114210363143,268.462728941598,0.0167866081976012,1.67428453867487,1.67224991321564,-0.713577296792981,8.89594636353917
0.84,4.32664104777218,267.027159735134,268.462728941598,-0.0698340678835095,1.54795903989681,1.57510614395142,-0.205320430066376,9.06621840285041
0.85,4.60639067786,267.071833275341,268.462728941598,-0.0395715192960054,1.4555603835401,1.43869066238403,-0.371903159199317,8.80533720100876
0.86,4.88614024140649,267.24039503152,268.462728941598,0.0786591629327896,1.55057844742688,1.49897313117981,-1.07334305416728,8.59390039703357
0.87,5.16587969184529,267.251958396061,268.462728941598,-0.0416489938774025,1.54160269221464,1.68707525730133,-0.388126945041083,9.77999863330801
0.88,5.4456274150985,267.20235038627,268.462728941598,0.00381184868346462,1.62744033999473,1.70311748981476,-0.657672387857935,9.34943856809309
0.89,5.72537356712247,267.130616833319,268.462728941598,-0.0468759095585544,1.60081467849549,1.67085480690002,-0.326591612173874,9.31967695676732
0.9,6.0051322992462,267.142532815973,268.462728941598,-0.0181261099449114,1.7100337305071,1.71180617809296,-0.510781373662707,8.90210265795513
0.91,0.00169600038983475,267.111732182733,268.462728941598,-0.0333507822112486,1.66391873381226,1.67956602573395,-0.417297682245865,8.99342455011762
0.92,0.281468919531711,267.087130256063,268.462728941598,-0.0726518344014406,1.64495603060376,1.59073269367218,-0.202567474880255,8.54999279035355
0.93,0.561219651692074,267.104528165419,268.462728941598,-0.0220050954587688,1.47085297050082,1.51675915718079,-0.483448324074415,9.15541377272098
0.94,0.840947750188011,267.204358518046,268.462728941598,-0.138785534677909,1.54638113525652,1.63774478435516,0.246433448936633,9.45818205784472
0.95,1.12069018310853,267.224400512466,268.462728941598,0.0630743213887397,1.58208623704998,1.70886707305908,-0.988130115215771,9.67135649346173
0.96,1.40044079251949,267.199511408337,268.462728941598,0.0429796519607893,1.58604502783237,1.66822612285614,-0.842093693543575,9.39021890866948
0.97,1.68019354077752,267.105773719501,268.462728941598,0.111923416459106,1.69015739045768,1.69765996932983,-1.27560632384432,8.93684496481582
0.98,1.9599497083637,267.157830460262,268.462728941598,-0.0627488279041755,1.73691735291115,1.76744985580444,-0.221157532566685,9.07304740008994
0.99,2.23968860963683,267.096662568874,268.462728941598,0.0746878213285885,1.78368497902555,1.75935101509094,-1.0481308179893,8.76837516371609
1,2.51943955940657,267.056878631456,268.462728941598,0.0420378419218228,1.64612755019255,1.56871366500854,-0.865473042586944,8.45584169532839
1.01,2.79919387078276,267.1769236006,268.462728941598,-0.0354084134691007,1.45554334847974,1.45957851409912,-0.414354366083189,8.94186138368267
1.02,3.07893401838729,267.279863518349,268.462728941598,0.0203202491663644,1.57554541990094,1.58397400379181,-0.729161995939628,8.97871392704082
1.03,3.35868996374413,267.304166750092,268.462728941598,0.0519367962875165,1.58803486781236,1.61363387107849,-0.909707803879854,9.05611014849805
1.04,3.63844496943658,267.149172948021,268.462728941598,0.010584069949675,1.5873850708395,1.66260206699371,-0.641450667849107,9.33570325793815
1.05,3.91821406116782,267.125819095451,268.462728941598,-0.0404485659693902,1.59564892894825,1.64750242233276,-0.334627686468412,9.16454080175791
1.06,4.1979489603608,267.136391444863,268.462728941598,0.0288376622001165,1.75876806740727,1.73151957988739,-0.750424808189856,8.72157312864438
1.07,4.47770230489698,267.112033946139,268.462728941598,-0.00641338532655152,1.71009634018765,1.68017411231995,-0.559306456468802,8.70842118848019
1.08,4.75744323194523,267.103824180277,268.462728941598,-0.0958467018125541,1.55433163987467,1.53217363357544,-0.0210424683951529,8.78113458754542
1.09,5.03719481660787,267.192217217869,268.462728941598,-0.085149143228806,1.5495050519392,1.57840943336487,-0.0824895891205671,9.09069958105845
1.1,5.3169370712734,267.259725665591,268.462728941598,0.035071222750228,1.57422144792589,1.66994667053223,-0.813250302604332,9.49484999051968
1.11,5.59667175758387,267.156774936669,268.462728941598,-0.0238063665929643,1.58639743780423,1.69201874732971,-0.451001356859936,9.56605857118625
1.12,5.87642487995247,267.105509315153,268.462728941598,0.056895924351332,1.60127768831155,1.68812024593353,-0.949368961855157,9.44712565574611
1.13,6.15617531883937,267.146221522873,268.462728941598,-0.034802173572995,1.66624003434934,1.68568980693817,-0.396057606943744,9.04812330434309
1.14,0.152741596868974,267.118170175364,268.462728941598,-0.0179049662538655,1.79883972079468,1.77002286911011,-0.478410713130268,8.7605617270344
1.15,0.432490656792385,267.115904937754,268.462728941598,-0.0778689795817479,1.62783093693703,1.63304281234741,-0.122067578693763,8.98030947685917
1.16,0.712253407842304,267.077959353432,268.462728941598,-0.0942795784548855,1.44416016911207,1.47786092758179,-0.0440566039887422,9.13860237821671
1.17,0.992005489855558,267.204009023579,268.462728941598,0.00257383221360608,1.40054923561738,1.47897577285767,-0.61916694290208,9.39603973072118
1.18,1.27174262926585,267.211390846012,268.462728941598,0.0919403599017869,1.54959004609032,1.65623819828033,-1.15593300550299,9.56860607186582
1.19,1.55148120741186,267.163588072112,268.462728941598,0.0556290619194708,1.59099613480252,1.68723046779633,-0.934982111859806,9.51408333371001
1.2,1.83123542735086,267.089679238604,268.462728941598,-0.00459502230654396,1.64272067563967,1.66479122638702,-0.580775114822846,9.06010423921991
1.21,2.11099019625271,267.113472050338,268.462728941598,-0.0198199433265188,1.8537111281837,1.81624126434326,-0.474522539060521,8.69922050304517
1.22,2.39075720561809,267.136021400201,268.462728941598,0.0404480568404103,1.68357601068874,1.72056543827057,-0.852734488851801,9.13123355940374
1.23,2.67052137356289,267.098459036953,268.462728941598,-0.038252604661595,1.65335277514335,1.59334111213684,-0.394535472414931,8.53554764100278
1.24,2.95027442882879,267.180567142027,268.462728941598,-0.0333136962173818,1.48184703227782,1.51640903949738,-0.433869633410507,9.10470481020289
1.25,3.23001323399592,267.268540458873,268.462728941598,-0.0328538959109637,1.43523611386019,1.57800137996674,-0.428238377434438,9.76757794867108
1.26,3.50975868505468,267.158970502435,268.462728941598,0.0214053129240663,1.55983988089454,1.67441666126251,-0.750754352151096,9.58796924438834
1.27,3.78950153486255,267.189463397966,268.462728941598,0.0252481340834301,1.61799447375677,1.72740471363068,-0.768664137629477,9.56104871909436
1.28,4.06925747696856,267.178596831181,268.462728941598,-0.0196053785143711,1.68686899356647,1.71379554271698,-0.492746975868857,9.0556345523889
1.29,4.34901576089042,267.118250972856,268.462728941598,0.0614258514220843,1.79173809974189,1.79042792320251,-0.999759098092865,8.87495810255466
1.3,4.62876884544836,267.062580830962,268.462728941598,0.0278703645569716,1.69837549775548,1.66033565998077,-0.810393752656461,8.66446090063417
1.31,4.90851877378331,267.119544258764,268.462728941598,-0.026204832486858,1.49092328766078,1.47448599338531,-0.484319679833837,8.80387170897135
1.32,5.18826466338521,267.176721528073,268.462728941598,-0.0172060588820808,1.49019880266618,1.46146404743195,-0.558979586784728,8.73939116606821
1.33,5.46800743407938,267.310891909096,268.462728941598,0.0355028268935911,1.62164589375117,1.65254712104797,-0.862514552869379,9.10047146006184
1.34,5.74775211821449,267.144704885287,268.462728941598,0.00407421632355309,1.56666006038013,1.66043698787689,-0.640449216399058,9.47224152678697
1.35,6.02750199161477,267.162098703993,268.462728941598,0.0571136821379929,1.67896919858122,1.72451329231262,-0.969693986322979,9.18352222391528
1.36,0.0240806065751116,267.136922901369,268.462728941598,-0.00920001201140819,1.66256232178328,1.65051710605621,-0.546550464096352,8.81623350776429
1.37,0.303833346416091,267.105641517805,268.462728941598,-0.00957630734174275,1.6870081807108,1.72073602676392,-0.552073476053163,9.09031129345517
